time,e,omega,d
0,0.942,0.6482848842903546,0.02633076200788132
0.05,0.9420221769829388,0.648320957162192,0.02624499685911136
0.1,0.9420437816063447,0.6483574459582885,0.02615973578738303
0.15000000000000002,0.9420648063334719,0.6483943401301344,0.026074978389536235
0.2,0.9420852447132518,0.6484316303346822,0.025990724261229864
0.25,0.9421050883156481,0.648469303983722,0.025906972803810498
0.30000000000000004,0.9421243304644493,0.6485073505518241,0.025823723441320626
0.35000000000000003,0.942142964351929,0.6485457589461551,0.02574097551877484
0.4,0.9421609833603468,0.6485845179466188,0.0256587283180133
0.45,0.9421783810629568,0.6486236162087485,0.025576981058101283
0.5,0.9421951512265947,0.648663042267458,0.025495732895392788
0.55,0.9422112878139504,0.6487027845405,0.02541498292368042
0.6000000000000001,0.9422267849733539,0.6487428313389739,0.02533473017827834
0.65,0.9422416370808177,0.6487831708479573,0.025254973623667673
0.7000000000000001,0.9422558386984862,0.6488237911559444,0.025175712167588404
0.75,0.9422693845929263,0.6488646802485202,0.025096944656138365
0.8,0.9422822697385196,0.6489058260113653,0.02501866987365071
0.8500000000000001,0.9422944893180735,0.6489472162347737,0.024940886543459512
0.9,0.9423060387246983,0.6489888386174173,0.0248635933282733
0.9500000000000001,0.9423169135636311,0.6490306807701491,0.02478678883057615
1,0.9423271096539987,0.6490727302198395,0.02471047159305823
1.05,0.9423366230305144,0.6491149744132468,0.024634640099075216
1.1,0.9423454499450601,0.6491574007207942,0.024559292773119586
1.1500000000000001,0.9423535868684049,0.6491999964408657,0.02448442798138097
1.2000000000000002,0.9423610304915854,0.6492427488034961,0.0244100440322545
1.25,0.9423677777273203,0.6492856449743153,0.024336139176902003
1.3,0.9423738257114324,0.649328672058701,0.024262711609861293
1.35,0.9423791718041323,0.6493718171058045,0.024189759469661357
1.4000000000000001,0.9423838135912455,0.6494150671126246,0.024117280839464128
1.4500000000000002,0.9423877488853677,0.6494584090281125,0.024045273747730026
1.5,0.9423909757269519,0.6495018297572982,0.02397373616890598
1.55,0.9423934923853208,0.6495453161654421,0.02390266602413501
1.6,0.9423952973596086,0.6495888550822055,0.023832061181986722
1.6500000000000001,0.9423963893796273,0.6496324333058432,0.023761919459207803
1.7000000000000002,0.9423967674066611,0.6496760376074133,0.02369223862149169
1.75,0.9423964306341833,0.6497196547350061,0.02362301638426664
1.8,0.9423953784885005,0.649763271417988,0.023554250413501347
1.85,0.9423936106293186,0.6498068743712606,0.023485938326527192
1.9000000000000001,0.9423911269502333,0.6498504502995344,0.023418077692876387
1.9500000000000002,0.942387927579143,0.6498939859016128,0.023350666035135033
2,0.9423840128785842,0.6499374678746898,0.023283700829810322
2.0500000000000003,0.9423793834459879,0.6499808829186536,0.023217179508210964
2.1,0.9423740401138582,0.6500242177404023,0.02315109945734001
2.15,0.9423679839498713,0.6500674590581635,0.023085458020799164
2.2,0.9423612162568946,0.6501105936058206,0.02302025249970374
2.25,0.9423537385729267,0.6501536081372429,0.022955480153607415
2.3000000000000003,0.9423455526709551,0.650196489430618,0.02289113820143585
2.35,0.9423366605587362,0.6502392242927862,0.0228272238224284
2.4000000000000004,0.942327064478491,0.6502817995635735,0.022763734157086993
2.45,0.9423167669065221,0.6503242021201235,0.02270066630813134
2.5,0.9423057705527478,0.6503664188812268,0.022638017341459666
2.5500000000000003,0.9422940783601548,0.6504084368116445,0.022575784287114087
2.6,0.9422816935041693,0.6504502429264267,0.02251396414024979
2.6500000000000004,0.9422686193919458,0.650491824295223,0.022452553862107264
2.7,0.9422548596615736,0.6505331680465846,0.0223915503809867
2.75,0.9422404181812016,0.6505742613722549,0.022330950593223795
2.8000000000000003,0.9422252990480806,0.6506150915314498,0.022270751364166144
2.85,0.942209506587523,0.650655645855123,0.02221094952914954
2.9000000000000004,0.9421930453517812,0.6506959117502175,0.022151541894473287
2.95,0.9421759201188433,0.6507358767039003,0.022092525238373854
3,0.9421581358911466,0.6507755282877797,0.02203389631199618
3.0500000000000003,0.9421396978942096,0.6508148541621028,0.021975651840361814
3.1,0.9421206115751825,0.6508538420799325,0.021917788523333318
3.1500000000000004,0.942100882601316,0.6508924798913022,0.021860303036574116
3.2,0.9420805168583485,0.6509307555473464,0.021803192032503277
3.25,0.9420595204488134,0.6509686571044069,0.021746452141244474
3.3000000000000003,0.942037899690265,0.6510061727281116,0.02169007997156858
3.35,0.9420156611134249,0.6510432906974246,0.021634072111829255
3.4000000000000004,0.9419928114602476,0.651079999408668,0.021578425130890977
3.45,0.9419693576819083,0.6511162873795115,0.021523135579048936
3.5,0.94194530693671,0.6511521432529294,0.0214681999889403
3.5500000000000003,0.9419206665879142,0.6511875558011238,0.021413614876446302
3.6,0.9418954442014928,0.6512225139294123,0.021359376741584685
3.6500000000000004,0.9418696475438026,0.6512570066800785,0.02130548206939206
3.7,0.9418432845791841,0.6512910232361838,0.021251927330795714
3.75,0.9418163634674842,0.6513245529253392,0.02119870898347446
3.8000000000000003,0.9417888925615036,0.6513575852234369,0.021145823472708176
3.85,0.9417608804043699,0.6513901097583367,0.021093267232215634
3.9000000000000004,0.9417323357268376,0.651422116313511,0.021041036684980304
3.95,0.9417032674445147,0.6514535948316421,0.02098912824406384
4,0.9416736846550181,0.6514845354181726,0.020937538313406955
4.05,0.9416435966350574,0.6515149283448088,0.020886263288617386
4.1000000000000005,0.9416130128374492,0.6515447640529721,0.020835299557744845
4.15,0.9415819428880624,0.6515740331572012,0.020784643502042604
4.2,0.941550396582695,0.6516027264484996,0.02073429149671566
4.25,0.9415183838838846,0.6516308348976312,0.020684239911655265
4.3,0.941485914917653,0.6516583496583592,0.020634485112159737
4.3500000000000005,0.9414529999701846,0.6516852620706283,0.020585023459641444
4.4,0.9414196494844438,0.6517115636636901,0.02053585131231989
4.45,0.9413858740567278,0.6517372461591675,0.020486965025900892
4.5,0.941351684433159,0.6517623014740601,0.020438360954241806
4.55,0.9413170915061182,0.6517867217236867,0.020390035450002803
4.6000000000000005,0.9412821063106178,0.6518104992245648,0.020341984865284306
4.65,0.941246740020619,0.6518336264972263,0.020294205552250564
4.7,0.9412110039452921,0.6518560962689669,0.020246693863739486
4.75,0.9411749095252231,0.6518779014765292,0.0201994461538589
4.800000000000001,0.9411384683285664,0.6518990352687171,0.020152458778569287
4.8500000000000005,0.9411016920471463,0.651919491008942,0.020105728096253238
4.9,0.9410645924925087,0.6519392622776975,0.020059250468271735
4.95,0.9410271815919228,0.6519583428749639,0.020013022259507553
5,0.9409894713843372,0.6519767268225386,0.019967039838895962
5.050000000000001,0.940951474016289,0.6519944083662943,0.019921299579943
5.1000000000000005,0.9409132017377704,0.6520113819783614,0.019875797861231566
5.15,0.9408746668980518,0.6520276423592352,0.019830531066915687
5.2,0.9408358819414637,0.652043184439806,0.019785495587203203
5.25,0.9407968594031416,0.6520580033833114,0.019740687818827263
5.300000000000001,0.9407576119047313,0.65207209458721,0.01969610416550697
5.3500000000000005,0.9407181521500595,0.6520854536849752,0.01965174103839752
5.4,0.9406784929207704,0.6520980765478079,0.019607594856530217
5.45,0.9406386470719305,0.6521099592862697,0.019563662047242865
5.5,0.9405986275276011,0.65212109825183,0.01951993904660081
5.550000000000001,0.9405584472763855,0.652131490038334,0.019476422299809178
5.6000000000000005,0.9405181193669453,0.6521411314833844,0.01943310826161671
5.65,0.940477656903495,0.6521500196696379,0.019389993396711623
5.7,0.9404370730412716,0.6521581519260176,0.019347074180110058
5.75,0.9403963809819836,0.6521655258288389,0.01930434709753749
5.800000000000001,0.9403555939692397,0.6521721392028479,0.019261808645803673
5.8500000000000005,0.940314725283961,0.6521779901221727,0.01921945533317157
5.9,0.9402737882397764,0.6521830769111868,0.01917728367972079
5.95,0.9402327961784052,0.6521873981452831,0.019135290217706033
6,0.9401917624650264,0.6521909526515599,0.019093471491911106
6.050000000000001,0.9401507004836392,0.6521937395094158,0.019051824059998987
6.1000000000000005,0.9401096236324152,0.6521957580510563,0.019010344492858443
6.15,0.9400685453190436,0.652197007861908,0.018969029374947818
6.2,0.9400274789560725,0.6521974887809431,0.018927875304636424
6.25,0.9399864379562491,0.6521972009009123,0.018886878894544146
6.300000000000001,0.9399454357278573,0.6521961445684864,0.018846036771879706
6.3500000000000005,0.939904485670058,0.6521943203843059,0.018805345578778214
6.4,0.9398636011682336,0.6521917292029388,0.018764801972638447
6.45,0.9398227955893363,0.6521883721327467,0.01872440262646038
6.5,0.9397820822772447,0.6521842505356577,0.018684144229183616
6.550000000000001,0.9397414745481291,0.6521793660268478,0.018644023486026964
6.6000000000000005,0.9397009856858286,0.6521737204743303,0.018604037118829995
6.65,0.9396606289372407,0.652167315998452,0.01856418186639675
6.7,0.9396204175077258,0.6521601549712975,0.01852445448484234
6.75,0.9395803645565288,0.6521522400160017,0.018484851747942777
6.800000000000001,0.9395404831922191,0.6521435740059703,0.0184453704474885
6.8500000000000005,0.9395007864681517,0.652134160064008,0.01840600739364216
6.9,0.9394612873779505,0.6521240015613561,0.01836675941530091
6.95,0.9394219988510153,0.6521131021166375,0.01832762336046389
7,0.9393829337480555,0.6521014655947128,0.018288596096605013
7.050000000000001,0.9393441048566517,0.652089096105444,0.01824967451105172
7.1000000000000005,0.9393055248868472,0.6520759980023689,0.018210855511369906
7.15,0.9392672064667696,0.6520621758812866,0.018172136025755455
7.2,0.9392291621382881,0.6520476345787525,0.018133513003432713
7.25,0.9391914043527031,0.6520323791704863,0.01809498341506019
7.300000000000001,0.9391539454664745,0.6520164149696914,0.01805654425314388
7.3500000000000005,0.9391167977369866,0.6519997475252866,0.01801819253245838
7.4,0.9390799733183557,0.6519823826200526,0.017979925290476106
7.45,0.9390434842572756,0.6519643262686915,0.017941739587804952
7.5,0.9390073424889097,0.6519455847158024,0.017903632508634394
7.550000000000001,0.9389715598328268,0.6519261644337719,0.017865601161190445
7.6000000000000005,0.9389361479889823,0.6519060721205825,0.017827642678199522
7.65,0.9389011185337491,0.6518853146975376,0.01778975421736141
7.7,0.9388664829159967,0.6518638993069061,0.017751932961831387
7.75,0.938832252453222,0.6518418333094863,0.017714176120711744
7.800000000000001,0.938798438327732,0.6518191242820903,0.01767648092955262
7.8500000000000005,0.93876505158288015,0.6517957800149509,0.01763884465086228
7.9,0.9387321031193588,0.6517718085090509,0.017601264574626883
7.95,0.9386996036915473,0.651747217973377,0.017563738018839647
8,0.9386675639039175,0.6517220168220985,0.017526262330039476
8.05,0.9386359942074998,0.6516962136716733,0.017488834883858943
8.1,0.9386049048964082,0.6516698173378814,0.017451453085581527
8.15,0.9385743061044279,0.6516428368327873,0.017414114370708042
8.200000000000001,0.9385442078016645,0.6516152813616336,0.01737681620553211
8.25,0.9385146197912579,0.6515871603196661,0.017339556087724448
8.3,0.9384855517061612,0.6515584832888924,0.0173023315469259
8.35,0.9384570130059844,0.6515292600347754,0.017265140145348894
8.4,0.9384290129739069,0.651499500502862,0.01722797947838708
8.450000000000001,0.9384015607136567,0.6514692148153517,0.017190847175232997
8.5,0.9383746651465584,0.6514384132676021,0.0171537408995033
8.55,0.9383483350086526,0.6514071063245764,0.017116658349871344
8.6,0.9383225788478836,0.6513753046172341,0.01707959726070676
8.65,0.9382974050213617,0.6513430189388634,0.017042555402721607
8.700000000000001,0.9382728216926941,0.651310260241361,0.017005530583622714
8.75,0.9382488368293922,0.6512770396314588,0.016968520648769823
8.8,0.9382254582003512,0.6512433683668993,0.016931523481839034
8.85,0.9382026933734037,0.651209257852561,0.016894537005491136
8.9,0.9381805497129491,0.6511747196365367,0.01685755918204425
8.950000000000001,0.9381590343776589,0.6511397654061659,0.01682058801415034
9,0.9381381543182575,0.6511044069840218,0.016783621545475046
9.05,0.9381179162753802,0.6510686563238567,0.01674665786138019
9.1,0.9380983267775074,0.6510325255065057,0.016709695089608508
9.15,0.9380793921389786,0.6509960267357519,0.01667273140096989
9.200000000000001,0.9380611184580825,0.6509591723341535,0.01663576501002856
9.25,0.9380435116152254,0.6509219747388355,0.016598794175790577
9.3,0.9380265772711797,0.6508844464972477,0.01656181720239091
9.35,0.9380103208654107,0.6508466002628903,0.01652483243977953
9.4,0.9379947476144821,0.6508084487910084,0.016487838284405733
9.450000000000001,0.9379798625105418,0.6507700049342597,0.01645083317990005
9.5,0.9379656703198866,0.650731281638353,0.016413815617752976
9.55,0.9379521755816075,0.6506922919376638,0.016376784137989785
9.600000000000001,0.9379393826063132,0.6506530489508242,0.01633973732984079
9.65,0.9379272954749356,0.650613565876294,0.016302673832406106
9.700000000000001,0.9379159180376141,0.6505738559879095,0.016265592335314303
9.75,0.9379052539126596,0.6505339326304153,0.016228491579374123
9.8,0.9378953064855987,0.6504938092149793,0.016191370357218418
9.850000000000001,0.9378860789082982,0.6504534992146945,0.01615422751393964
9.9,0.9378775740981683,0.6504130161600652,0.016117061947715935
9.950000000000001,0.9378697947374468,0.6503723736344846,0.016079872610427173
10,0.9378627432725608,0.6503315852697019,0.01604265850826001
10.05,0.9378564219135695,0.6502906647412809,0.016005418702301183
10.100000000000001,0.9378508326336852,0.6502496257640539,0.015968152309118328
10.15,0.9378459771688723,0.6502084820875701,0.015930858501327333
10.200000000000001,0.9378418570175263,0.6501672474915414,0.01589353650814553
10.25,0.9378384734402294,0.6501259357812872,0.015856185615929917
10.3,0.9378358274595855,0.6500845607831799,0.01581880516869952
10.350000000000001,0.937833919860131,0.6500431363400921,0.015781394568641173
10.4,0.9378327511883237,0.650001676306847,0.015743953276597816
10.450000000000001,0.9378323217526083,0.6499601945456753,0.015706480812538663
10.5,0.937832631623558,0.6499187049216776,0.015668976756010256
10.55,0.9378336806340911,0.6498772212982957,0.01563144074656783
10.600000000000001,0.937835468379764,0.6498357575327942,0.015593872484186009
10.65,0.9378379942191379,0.6497943274717519,0.015556271729648264
10.700000000000001,0.9378412572742216,0.6497529449465678,0.01551863830491421
10.75,0.9378452564309855,0.6497116237689798,0.015480972093464147
10.8,0.9378499903399495,0.6496703777266007,0.015443273040620006
10.850000000000001,0.9378554574168455,0.6496292205784696,0.015405541153842066
10.9,0.9378616558433486,0.649588166050623,0.015367776503000686
10.950000000000001,0.9378685835678819,0.6495472278316851,0.015329979220622408
11,0.9378762383064916,0.6495064195684797,0.015292149502109787
11.05,0.9378846175437906,0.6494657548616648,0.0152542876059342
11.100000000000001,0.937893718533974,0.6494252472613903,0.01521639385380115
11.15,0.9379035383019011,0.6493849102629816,0.015178468630787352
11.200000000000001,0.9379140736442465,0.649344757302649,0.015140512385449055
11.25,0.9379253211307186,0.6493048017532256,0.015102525629901027
11.3,0.9379372771053434,0.6492650569199324,0.015064508939865663
11.350000000000001,0.9379499376878156,0.649225536036176,0.015026462954691717
11.4,0.9379632987749146,0.649186252259375,0.01498838837734212
11.450000000000001,0.9379773560419835,0.6491472186668198,0.01495028597435045
11.5,0.9379921049444732,0.6491084482515662,0.014912156575745582
11.55,0.9380075407195486,0.6490699539183633,0.014874001074944156
11.600000000000001,0.9380236583877574,0.6490317484796173,0.014835820428610385
11.65,0.9380404527547586,0.6489938446513908,0.014797615656482913
11.700000000000001,0.9380579184131141,0.648956255049442,0.014759387841168342
11.75,0.9380760497441372,0.6489189921853012,0.014721138127901174
11.8,0.9380948409198013,0.6488820684623872,0.014682867724269797
11.850000000000001,0.9381142859047074,0.6488454961721649,0.014644577899908374
11.9,0.9381343784581064,0.6488092874903444,0.014606269986154358
11.950000000000001,0.9381551121359814,0.6487734544731224,0.014567945375671418
12,0.9381764802931808,0.6487380090534685,0.014529605522037707
12.05,0.9381984760856112,0.6487029630374536,0.014491251939299255
12.100000000000001,0.9382210924724805,0.6486683281006258,0.01445288620148846
12.15,0.9382443222185959,0.6486341157844313,0.014414509942107566
12.200000000000001,0.938268157896713,0.6486003374926823,0.014376124853577124
12.25,0.938292591889938,0.6485670044880736,0.014337732686649465
12.3,0.938317616394178,0.648534127888746,0.014299335249787113
12.350000000000001,0.9383432234206436,0.648501718664901,0.014260934408506384
12.4,0.9383694047983981,0.6484697876354643,0.014222532084686079
12.450000000000001,0.9383961521769567,0.6484383454648004,0.01418413025584154
12.5,0.9384234570289314,0.6484074026594787,0.014145730954364177
12.55,0.9384513106527221,0.6483769695650925,0.014107336266726665
12.600000000000001,0.9384797041752556,0.6483470563631292,0.014068948332654074
12.65,0.9385086285547657,0.6483176730678962,0.01403056934426115
12.700000000000001,0.9385380745836196,0.6482888295234992,0.013992201545156081
12.75,0.9385680328911871,0.6482605354008758,0.013953847229511067
12.8,0.9385984939467499,0.6482328001948855,0.013915508741100034
12.850000000000001,0.9386294480624547,0.648205633221454,0.013877188472303924
12.9,0.9386608853963058,0.6481790436147752,0.01383888886308394
12.950000000000001,0.9386927959551957,0.6481530403245703,0.013800612399923256
13,0.9387251695979775,0.6481276321134041,0.013762361614737604
13.05,0.9387579960385726,0.6481028275540592,0.013724139083755351
13.100000000000001,0.9387912648491165,0.6480786350269703,0.013685947426367515
13.15,0.9388249654631409,0.6480550627177158,0.013647789303948384
13.200000000000001,0.9388590871787915,0.6480321186145709,0.013609667418647272
13.25,0.9388936191620793,0.6480098105061189,0.013571584512152115
13.3,0.9389285504501665,0.6479881459789252,0.013533543364425511
13.350000000000001,0.9389638699546855,0.6479671324152705,0.013495546792413944
13.4,0.938999566465089,0.6479467769909466,0.013457597648730864
13.450000000000001,0.9390356286520325,0.6479270866731134,0.013419698820314425
13.5,0.9390720450707867,0.6479080682182189,0.013381853227060607
13.55,0.9391088041646795,0.6478897281699804,0.013344063820432532
13.600000000000001,0.9391458942685668,0.6478720728574311,0.013306333582046796
13.65,0.9391833036123316,0.6478551083930272,0.013268665522237686
13.700000000000001,0.9392210203244097,0.6478388406708213,0.013231062678600095
13.75,0.9392590324353427,0.6478232753646981,0.01319352811451207
13.8,0.9392973278813553,0.6478084179266755,0.0131560649176379
13.850000000000001,0.9393358945079584,0.6477942735852703,0.013118676198412688
13.9,0.9393747200735756,0.6477808473439279,0.013081365088509272
13.950000000000001,0.9394137922531925,0.6477681439795188,0.013044134739288615
14,0.9394530986420295,0.6477561680408993,0.013006988320234532
14.05,0.9394926267592341,0.6477449238475396,0.012969929017373772
14.100000000000001,0.9395323640515955,0.6477344154882163,0.012932960031682584
14.15,0.9395722978972791,0.6477246468197726,0.012896084577480647
14.200000000000001,0.9396124156095785,0.647715621465944,0.012859305880813542
14.25,0.9396527044406867,0.6477073428162516,0.012822627177824765
14.3,0.9396931515854849,0.6476998140249629,0.01278605171311837
14.350000000000001,0.9397337441853476,0.6476930380101179,0.01274958273811336
14.4,0.9397744693319631,0.6476870174526248,0.012713223509390883
14.450000000000001,0.9398153140711694,0.6476817547954222,0.012676977287035356
14.5,0.9398562654068037,0.6476772522427092,0.012640847332970651
14.55,0.9398973103045658,0.6476735117592436,0.012604836909292438
14.600000000000001,0.9399384356958937,0.6476705350697081,0.01256894927659783
