time,e,omega,d
0,0.942,0.648316538100394,0.02633076200788132
0.05,0.9420238855526176,0.6483535500398238,0.02624451829208654
0.1,0.9420471755034235,0.6483910278823588,0.026158788337768562
0.15000000000000002,0.9420698614847239,0.6484289609242453,0.026073571911112172
0.2,0.9420919363197792,0.6484673396726998,0.025988868752694183
0.25,0.9421133906129042,0.6485061513232432,0.025904678453326082
0.30000000000000004,0.9421342168977379,0.6485453851486184,0.025821000587421462
0.35000000000000003,0.9421544075444038,0.6485850298304714,0.02573783465327528
0.4,0.9421739551160917,0.6486250739053306,0.025655180081776925
0.45,0.9421928523702648,0.6486655057675096,0.02557303623677784
0.5,0.9422110922615952,0.6487063136727845,0.025491402415083575
0.55,0.9422286679445484,0.6487474857417903,0.02541027784654491
0.6000000000000001,0.9422455727632135,0.6487890099715939,0.025329661698364855
0.65,0.9422618002945176,0.6488308742126367,0.025249553061795754
0.7000000000000001,0.9422773443061043,0.648873066202125,0.025169950967160293
0.75,0.942292198775261,0.6489155735561533,0.025090854378542426
0.8,0.9423063578926757,0.6489583837725408,0.025012262193589756
0.8500000000000001,0.9423198160633498,0.649001484235432,0.02493417324426999
0.9,0.9423325679088069,0.6490448622190248,0.0248565862972085
0.9500000000000001,0.9423446082692506,0.649088504891341,0.024779500054056693
1,0.942355932205662,0.649132399318035,0.024702913151893192
1.05,0.9423665350018353,0.6491765324662417,0.02462682416365734
1.1,0.9423764121662861,0.649220891208335,0.024551231598598622
1.1500000000000001,0.9423855594343427,0.6492654623262087,0.024476133902815778
1.2000000000000002,0.9423939727698429,0.6493102325149606,0.024401529459750975
1.25,0.9424016483668881,0.6493551883868327,0.02432741659073887
1.3,0.9424085826516195,0.6494003164753657,0.024253793555605953
1.35,0.9424147722838454,0.6494456032394318,0.024180658553280075
1.4000000000000001,0.942420214158613,0.6494910350673233,0.024108009722429678
1.4500000000000002,0.9424249054077118,0.6495365982808743,0.024035845142130054
1.5,0.9424288434011069,0.6495822791396139,0.023964162832555237
1.55,0.9424320257482999,0.6496280638449458,0.023892960755694685
1.6,0.942434450299619,0.6496739385443585,0.023822236816093943
1.6500000000000001,0.9424361151474346,0.6497198893356584,0.023751988861618435
1.7000000000000002,0.9424370186273004,0.6497659022712311,0.023682214684239478
1.75,0.9424371593190217,0.649811963362325,0.02361291202084162
1.8,0.9424365360476455,0.6498580585833589,0.023544078554050506
1.85,0.9424351478843761,0.6499041738762507,0.023475711913080236
1.9000000000000001,0.9424329941474122,0.6499502951547674,0.023407809674599364
1.9500000000000002,0.9424300744027073,0.6499964083088945,0.023340369363614617
2,0.9424263884646503,0.6500424992092229,0.02327338845437142
2.0500000000000003,0.9424219363966673,0.6500885537113539,0.023206864371270185
2.1,0.942416718511743,0.6501345576603196,0.02314079448979756
2.15,0.9424107353728629,0.6501804968950181,0.02307517613747161
2.2,0.9424039877933725,0.650226357252662,0.023010006594799993
2.25,0.9423964768372552,0.6502721245732387,0.0229452830962502
2.3000000000000003,0.9423882038193288,0.6503177847039826,0.02288100283123083
2.35,0.9423791703053571,0.650363323503856,0.022817162945083163
2.4000000000000004,0.942369378112081,0.6504087268480386,0.02275376054008172
2.45,0.9423588293071626,0.6504539806324248,0.022690792676443264
2.5,0.9423475262090474,0.6504990707781254,0.022628256373342998
2.5500000000000003,0.9423354713867397,0.6505439832359755,0.022566148609937185
2.6,0.942322667659495,0.6505887039910438,0.022504466326391206
2.6500000000000004,0.9423091180964251,0.6506332190671458,0.022443206424912127
2.7,0.9422948260160188,0.6506775145313551,0.022382365770784896
2.75,0.9422797949855749,0.6507215764985167,0.022321941193411205
2.8000000000000003,0.9422640288205505,0.6507653911357556,0.022261929487350212
2.85,0.942247531583822,0.6508089446669839,0.022202327413360146
2.9000000000000004,0.9422303075848585,0.6508522233774019,0.022143131699439995
2.95,0.9422123613788096,0.6508952136179932,0.02208433904187039
3,0.9421936977655057,0.6509379018100128,0.022025946106252844
3.0500000000000003,0.9421743217883702,0.650980274449466,0.021967949528546537
3.1,0.9421542387332466,0.6510223181115764,0.021910345916101834
3.1500000000000004,0.9421334541271352,0.6510640194552434,0.021853131848689724
3.2,0.9421119737368462,0.6511053652274853,0.021796303879526455
3.25,0.9420898035675623,0.6511463422678685,0.02173985853629254
3.3000000000000003,0.9420669498613169,0.6511869375129218,0.021683792322145498
3.35,0.9420434190953834,0.651227138000531,0.021628101716725526
3.4000000000000004,0.9420192179805791,0.6512669308743175,0.02157278317715347
3.45,0.9419943534594812,0.6513063033879944,0.02151783313902043
3.5,0.9419688327045581,0.6513452429097024,0.021463248017368323
3.5500000000000003,0.9419426631162127,0.6513837369263225,0.021409024207660766
3.6,0.9419158523207416,0.6514217730477637,0.02135515808674383
3.6500000000000004,0.9418884081682084,0.6514593390112255,0.021301646013795878
3.7,0.9418603387302311,0.6514964226854323,0.021248484331266138
3.75,0.9418316522976864,0.6515330120748392,0.02119566936580137
3.8000000000000003,0.9418023573783293,0.6515690953238082,0.021143197429160206
3.85,0.9417724626943283,0.6516046607207516,0.021091064819114713
3.9000000000000004,0.9417419771797199,0.651639696702243,0.021039267820338672
3.95,0.941710909977777,0.6516741918570927,0.020987802705282256
4,0.9416792704382999,0.6517081349303883,0.020936665735032695
4.05,0.9416470681148228,0.6517415148274961,0.020885853160160575
4.1000000000000005,0.9416143127617413,0.6517743206180249,0.020835361221551475
4.15,0.9415810143313604,0.6518065415397475,0.02078518615122269
4.2,0.9415471829708633,0.6518381670024815,0.020735324173124705
4.25,0.9415128290192019,0.651869186591926,0.020685771503927246
4.3,0.9414779630039117,0.6518995900734528,0.020636524353789765
4.3500000000000005,0.9414425956378487,0.6519293673958515,0.020587578927116098
4.4,0.9414067378158516,0.6519585086950266,0.02053893142329324
4.45,0.941370400611331,0.6519870042976443,0.02049057803741411
4.5,0.9413335952727837,0.6520148447247288,0.02044251496098423
4.55,0.9412963332202355,0.6520420206952061,0.020394738382612316
4.6000000000000005,0.9412586260416144,0.6520685231293931,0.0203472444886847
4.65,0.9412204854890512,0.6520943431524316,0.020300029464023733
4.7,0.9411819234751145,0.6521194720976653,0.02025308949253005
4.75,0.9411429520689758,0.6521439015099573,0.02020642075780895
4.800000000000001,0.94110358349251,0.6521676231489488,0.02016001944378089
4.8500000000000005,0.9410638301163311,0.6521906289922558,0.020113881735276264
4.9,0.9410237044557634,0.6522129112386018,0.0200680038186147
4.95,0.9409832191667515,0.6522344623108878,0.020022381882168958
5,0.9409423870417097,0.6522552748591942,0.01997701211691374
5.050000000000001,0.9409012210053117,0.6522753417637177,0.019931890716959683
5.1000000000000005,0.9408597341102233,0.6522946561376366,0.01988701388007273
5.15,0.9408179395327783,0.6523132113299079,0.019842377808179264
5.2,0.9407758505686002,0.6523310009279918,0.019797978707857315
5.25,0.9407334806281711,0.6523480187605025,0.019753812790814194
5.300000000000001,0.9406908432323486,0.6523642588997854,0.019709876274350936
5.3500000000000005,0.9406479520078347,0.6523797156644179,0.01966616538181397
5.4,0.9406048206825935,0.6523943836216318,0.019622676343034443
5.45,0.9405614630812268,0.6524082575896586,0.019579405394755632
5.5,0.9405178931203017,0.6524213326399937,0.019536348781048974
5.550000000000001,0.9404741248036379,0.6524336040995791,0.01949350275371909
5.6000000000000005,0.9404301722175528,0.6524450675529037,0.019450863572698474
5.65,0.940386049526068,0.6524557188440191,0.01940842750643224
5.7,0.9403417709660792,0.6524655540784707,0.01936619083225353
5.75,0.9402973508424899,0.6524745696251416,0.019324149836750203
5.800000000000001,0.9402528035233129,0.6524827621180087,0.01928230081612324
5.8500000000000005,0.9402081434347389,0.6524901284578106,0.019240640076537623
5.9,0.9401633850561778,0.652496665813624,0.019199163934466152
5.95,0.9401185429152711,0.6525023716243499,0.019157868717026943
6,0.9400736315828797,0.652507243600107,0.019116750762315154
6.050000000000001,0.9400286656680475,0.6525112797235317,0.019075806419729568
6.1000000000000005,0.9399836598129455,0.6525144782509827,0.01903503205029477
6.15,0.9399386286877945,0.6525168377136515,0.018994424026979467
6.2,0.9398935869857729,0.6525183569185755,0.018953978735011662
6.25,0.9398485494179074,0.6525190349495532,0.018913692572191373
6.300000000000001,0.9398035307079533,0.6525188711679626,0.018873561949201523
6.3500000000000005,0.9397585455872619,0.6525178652134783,0.01883358328991764
6.4,0.9397136087896404,0.6525160170046909,0.018793753031717125
6.45,0.9396687350462052,0.6525133267396228,0.018754067625788715
6.5,0.9396239390802315,0.6525097948961459,0.01871452353744277
6.550000000000001,0.9395792356019997,0.6525054222322938,0.018675117246423106
6.6000000000000005,0.9395346393036431,0.6525002097864738,0.018635845247221033
6.65,0.9394901648539971,0.6524941588775739,0.018596704049392183
6.7,0.9394458268934527,0.6524872711049662,0.018557690177876902
6.75,0.9394016400288183,0.6524795483484069,0.018518800173324707
6.800000000000001,0.9393576188281885,0.6524709927678304,0.01848003059242353
6.8500000000000005,0.9393137778158246,0.6524616068030384,0.01844137800823436
6.9,0.9392701314670484,0.6524513931732844,0.018402839010531833
6.95,0.9392266942031521,0.6524403548767513,0.01836441020615145
7,0.939183480386324,0.652428495189924,0.018326088219343922
7.050000000000001,0.9391405043145962,0.652415817666855,0.018287869692137262
7.1000000000000005,0.9390977802168122,0.6524023261383256,0.018249751284707162
7.15,0.9390553222476203,0.652388024710899,0.018211729675756138
7.2,0.9390131444824914,0.6523729177658681,0.018173801562902027
7.25,0.938971260912767,0.6523570099580984,0.018135963663076266
7.300000000000001,0.9389296854407361,0.652340306214763,0.018098212712932445
7.3500000000000005,0.9388884318747452,0.6523228117339736,0.018060545469265613
7.4,0.9388475139243441,0.6523045319833056,0.018022958709442642
7.45,0.938806945195465,0.6522854726982189,0.017985449231844242
7.5,0.9387667391856448,0.6522656398803731,0.017948013856318775
7.550000000000001,0.938726909279284,0.6522450397958394,0.017910649424648418
7.6000000000000005,0.9386874687429511,0.6522236789732091,0.017873352801027843
7.65,0.9386484307207298,0.6522015642015992,0.017836120872555775
7.7,0.9386098082296145,0.6521787025285555,0.017798950549739713
7.75,0.9385716141549525,0.6521551012578539,0.017761838767013954
7.800000000000001,0.9385338612459381,0.6521307679472029,0.017724782483271223
7.8500000000000005,0.9384965621111577,0.6521057104058439,0.01768777868240802
7.9,0.9384597292141901,0.6520799366920542,0.017650824373883833
7.95,0.9384233748692614,0.6520534551105518,0.017613916593294338
8,0.9383875112369586,0.6520262742098032,0.017577052402958655
8.05,0.9383521503200021,0.6519984027792355,0.017540228892520694
8.1,0.9383173039590782,0.6519698498463544,0.01750344317956458
8.15,0.9382829838287364,0.6519406246737681,0.0174666924102442
8.200000000000001,0.9382492014333491,0.6519107367561203,0.017429973759926727
8.25,0.9382159681031373,0.6518801958169311,0.01739328443385007
8.3,0.9381832949902643,0.65184901180535,0.017356621667794118
8.35,0.9381511930649978,0.65181719489282,0.017319982728765615
8.4,0.9381196731119424,0.6517847554696556,0.017283364915696438
8.450000000000001,0.9380887457263438,0.6517517041415369,0.0172467655601551
8.5,0.9380584213104655,0.6517180517259191,0.017210182027071152
8.55,0.9380287100700402,0.6516838092483612,0.017173611715472173
8.6,0.9379996220107975,0.651648987938775,0.017137052059233136
8.65,0.9379711669350668,0.6516135992275955,0.01710050052783755
8.700000000000001,0.9379433544384596,0.6515776547418752,0.01706395462715022
8.75,0.9379161939066298,0.6515411663013039,0.017027411900200993
8.8,0.9378896945121157,0.6515041459141557,0.016990869927979095
8.85,0.9378638652112616,0.6514666057731655,0.016954326330237593
8.9,0.9378387147412225,0.6514285582513363,0.016917778766307335
8.950000000000001,0.9378142516170516,0.6513900158976803,0.016881224935919897
9,0.9377904841288724,0.6513509914328939,0.016844662580038867
9.05,0.9377674203391354,0.6513114977449711,0.016808089481698877
9.1,0.9377450680799596,0.651271547884756,0.01677150346685169
9.15,0.9377234349505623,0.6512311550614357,0.016734902405218657
9.200000000000001,0.9377025283147739,0.6511903326379771,0.016698284211148832
9.25,0.9376823552986425,0.65114909412651,0.016661646844482
9.3,0.937662922788125,0.6511074531836565,0.016624988311415796
9.35,0.9376442374268691,0.6510654236058113,0.016588306665376185
9.4,0.9376263056140826,0.6510230193243737,0.016551600007890424
9.450000000000001,0.9376091335024941,0.6509802544009334,0.016514866489461662
9.5,0.9375927269964036,0.6509371430224137,0.016478104310444358
9.55,0.9375770917498236,0.6508936994961722,0.016441311721919517
9.600000000000001,0.9375622331647113,0.6508499382450631,0.016404487026568954
9.65,0.937548156389292,0.650805873802463,0.01636762857954755
9.700000000000001,0.9375348663164735,0.6507615208072604,0.0163307347893526
9.75,0.9375223675823532,0.6507168939988144,0.01629380411868929
9.8,0.9375106645648158,0.6506720082118826,0.01625683508533127
9.850000000000001,0.9374997613822237,0.6506268783715211,0.016219826262975388
9.9,0.937489661892199,0.6505815194879583,0.01618277628208952
9.950000000000001,0.9374803696904965,0.6505359466514455,0.016145683830752502
10,0.9374718881099707,0.6504901750270872,0.016108547655485125
10.05,0.9374642202196323,0.6504442198496498,0.016071366562071143
10.100000000000001,0.9374573688237969,0.6503980964183564,0.016034139416367266
10.15,0.9374513364613266,0.6503518200916645,0.01599686514510105
10.200000000000001,0.9374461254049611,0.6503054062820323,0.01595954273665564
10.25,0.9374417376607403,0.6502588704506745,0.01592217124184032
10.3,0.9374381749675182,0.6502122281023098,0.0158847497746458
10.350000000000001,0.9374354387965668,0.650165494779902,0.015847277512983107
10.4,0.9374335303512695,0.6501186860593976,0.01580975369940517
10.450000000000001,0.9374324505669056,0.6500718175444604,0.01577217764180982
10.5,0.9374322001105223,0.6500249048612081,0.01573454871412341
10.55,0.9374327793808972,0.6499779636529491,0.015696866356963737
10.600000000000001,0.9374341885085875,0.6499310095749248,0.015659130078281434
10.65,0.9374364273560685,0.6498840582890575,0.015621339453978665
10.700000000000001,0.937439495517958,0.6498371254587063,0.015583494128504191
10.75,0.9374433923213281,0.6497902267434339,0.015545593815423697
10.8,0.9374481168261031,0.6497433777937841,0.01550763829796445
10.850000000000001,0.9374536678255424,0.6496965942460748,0.015469627429533313
10.9,0.9374600438468087,0.6496498917172056,0.015431561134207034
10.950000000000001,0.9374672431516197,0.6496032857994823,0.015393439407194013
11,0.9374752637369833,0.6495567920554635,0.015355262315266485
11.05,0.937484103336016,0.649510426012825,0.015317029997162248
11.100000000000001,0.9374937594188427,0.6494642031592495,0.01527874266395507
11.15,0.9375042291935775,0.6494181389373395,0.015240400599392839
11.200000000000001,0.937515509607385,0.6493722487395571,0.015202004160202657
11.25,0.9375275973476218,0.6493265479031923,0.015163553776362037
11.3,0.9375404888430553,0.6492810517053587,0.015125049951335378
11.350000000000001,0.9375541802651615,0.6492357753580223,0.015086493262275024
11.4,0.9375686675294993,0.6491907340030629,0.015047884360186052
11.450000000000001,0.9375839462971615,0.6491459427073678,0.015009223970054148
11.5,0.9376000119762995,0.6491014164579629,0.014970512890935901
11.55,0.9376168597237242,0.6490571701571806,0.014931751996010772
11.600000000000001,0.9376344844465799,0.6490132186178649,0.014892942232594221
11.65,0.937652880804089,0.6489695765586179,0.014854084622111342
11.700000000000001,0.9376720432093709,0.6489262585990868,0.014815180260030474
11.75,0.937691965831329,0.648883279255294,0.01477623031575623
11.8,0.9377126425966094,0.6488406529350088,0.014737236032481548
11.850000000000001,0.9377340671916267,0.6487983939331674,0.014698198726998212
11.9,0.9377562330646589,0.648756516427337,0.014659119789465515
11.950000000000001,0.9377791334280082,0.6487150344732278,0.014620000683136632
12,0.9378027612602271,0.6486739620002535,0.014580842944042422
12.05,0.9378271093084108,0.6486333128071423,0.01454164818063232
12.100000000000001,0.9378521700905528,0.6485931005575971,0.014502418073372101
12.15,0.9378779358979616,0.6485533387760097,0.014463154374298277
12.200000000000001,0.9379043987977426,0.6485140408432257,0.01442385890652894
12.25,0.9379315506353371,0.6484752199923649,0.014384533563730978
12.3,0.9379593830371248,0.6484368893046956,0.014345180309543471
12.350000000000001,0.9379878874130816,0.6483990617055653,0.014305801176957355
12.4,0.938017054959498,0.6483617499603878,0.01426639826765118
12.450000000000001,0.9380468766617531,0.648324966670688,0.014226973751283145
12.5,0.9380773432971442,0.6482887242702052,0.014187529864739392
12.55,0.9381084454377715,0.6482530350210555,0.014148068911338697
12.600000000000001,0.9381401734534777,0.6482179110099542,0.014108593259993757
12.65,0.9381725175148383,0.6481833641444996,0.014069105344329216
12.700000000000001,0.938205467596206,0.6481494061495179,0.014029607661756706
12.75,0.9382390134788045,0.6481160485634706,0.013990102772507194
12.8,0.9382731447538721,0.6480833027349249,0.013950593298620953
12.850000000000001,0.9383078508258558,0.648051179819088,0.013911081922895502
12.9,0.9383431209156514,0.6480196907744055,0.013871571387792008
12.950000000000001,0.9383789440638919,0.6479888463592248,0.013832064494300474
13,0.9384153091342807,0.6479586571285249,0.01379256410076435
13.05,0.9384522048169713,0.6479291334307109,0.013753073121664978
13.100000000000001,0.9384896196319897,0.6479002854044765,0.013713594526366535
13.15,0.9385275419327006,0.6478721229757335,0.013674131337822032
13.200000000000001,0.9385659599093152,0.647844655854609,0.013634686631241053
13.25,0.9386048615924413,0.6478178935325108,0.01359526353271989
13.3,0.9386442348566717,0.6477918452792623,0.013555865217834888
13.350000000000001,0.9386840674242141,0.6477665201403053,0.013516494910199642
13.4,0.9387243468685579,0.6477419269339747,0.013477155879986963
13.450000000000001,0.938765060618179,0.647718074248841,0.013437851442416382
13.5,0.9388061959602808,0.647694970441125,0.013398584956208109
13.55,0.938847740044571,0.6476726236321833,0.013359359822004344
13.600000000000001,0.9388896798870733,0.6476510417060638,0.013320179480758868
13.65,0.938932002373972,0.6476302323071353,0.013281047412095917
13.700000000000001,0.9389746942654907,0.647610202837787,0.013241967132639323
13.75,0.9390177421998019,0.6475909604562012,0.013202942194312983
13.8,0.9390611326969684,0.6475725120741993,0.013163976182613715
13.850000000000001,0.9391048521629142,0.6475548643551597,0.013125072714857609
13.9,0.9391488868934248,0.6475380237120103,0.013086235438400949
13.950000000000001,0.9391932230781763,0.6475219963052932,0.013047468028836986
14,0.939237846804792,0.6475067880413046,0.013008774188169559
14.05,0.9392827440629251,0.6474924045703079,0.012970157642964927
14.100000000000001,0.939327900748367,0.6474788512848214,0.012931622142482994
14.15,0.9393733026671814,0.6474661333179808,0.012893171456789101
14.200000000000001,0.9394189355398613,0.647454255541976,0.012854809374847771
14.25,0.9394647850055103,0.647443222566564,0.012816539702599623
14.3,0.9395108366260446,0.6474330387376549,0.012778366261022791
14.350000000000001,0.9395570758904179,0.6474237081359762,0.012740292884180193
14.4,0.9396034882188655,0.6474152345758092,0.01270232341725395
14.450000000000001,0.9396500589671696,0.6474076216038045,0.012664461714568339
14.5,0.939696773430941,0.6474008724978708,0.012626711637602676
14.55,0.9397436168499217,0.647394990266141,0.012589077052995484
14.600000000000001,0.9397905744123015,0.6473899776460137,0.012551561830541342
