time,e,omega,d
0,0.942,0.6482848842903546,0.02633076200788132
0.05,0.9420218733380303,0.6483562376856419,0.026245081415333694
0.1,0.9420425629066762,0.6484284540531318,0.026160074169445095
0.15000000000000002,0.9420620531782942,0.6485014927507544,0.026075740089827
0.2,0.9420803311187581,0.6485753177529658,0.02599207881669883
0.25,0.942097380010673,0.6486498804938275,0.025909089637391074
0.30000000000000004,0.9421131870819637,0.648725140333513,0.02582677163865394
0.35000000000000003,0.9421277396202986,0.6488010544409598,0.02574512365986804
0.4,0.9421410256499329,0.6488775795008322,0.025664144298703635
0.45,0.9421530339358162,0.6489546717321671,0.025583831914801458
0.5,0.9421637539941111,0.6490322869146781,0.02550418463212503
0.55,0.9421731761011815,0.6491103804129668,0.02542520034177123
0.6000000000000001,0.9421812913022749,0.6491889072012057,0.02534687670497719
0.65,0.9421880914198002,0.649267821888112,0.02526921115633471
0.7000000000000001,0.9421935690611917,0.6493470787421988,0.02519220090720361
0.75,0.9421977176263521,0.6494266317172949,0.02511584294931546
0.8,0.942200531314665,0.649506434478322,0.02504013405855888
0.8500000000000001,0.9422020051315699,0.6495864404273163,0.024965070798937315
0.9,0.9422021348946886,0.6496666027296828,0.02489064952669
0.9500000000000001,0.9422009172394987,0.6497468743406727,0.02481686639456656
1,0.9421983496245426,0.6498272080320695,0.024743717356245552
1.05,0.9421944303361669,0.6499075564190736,0.024671198170887094
1.1,0.9421891584927838,0.6499878719873726,0.02459930440780952
1.1500000000000001,0.9421825340486472,0.6500681071203853,0.024528031451279953
1.2000000000000002,0.9421745577971358,0.6501482141266681,0.02445737450540857
1.25,0.942165231373538,0.6502281452674695,0.024387328599136192
1.3,0.9421545572573301,0.6503078527844236,0.02431788859130493
1.35,0.9421425387739428,0.6503872889273666,0.024249049175801427
1.4000000000000001,0.9421291800960097,0.6504664059822681,0.02418080488676235
1.4500000000000002,0.942114486244091,0.6505451562992601,0.024113150103831783
1.5,0.9420984630868691,0.6506234923207554,0.024046079057460146
1.55,0.9420811173408085,0.6507013666096404,0.023979585834234495
1.6,0.9420624565692761,0.6507787318775309,0.02391366438222996
1.6500000000000001,0.9420424891811187,0.650855541013077,0.023848308516372353
1.7000000000000002,0.9420212244286902,0.6509317471103069,0.023783511923802028
1.75,0.9419986724053284,0.6510073034969934,0.0237192681692293
1.8,0.9419748440422754,0.6510821637630336,0.023655570700271827
1.85,0.9419497511050386,0.6511562817888262,0.023592412852764724
1.9000000000000001,0.9419234061891907,0.6512296117736364,0.023529787856034223
1.9500000000000002,0.9418958227156056,0.6513021082639316,0.023467688838126083
2,0.941867014925127,0.651373726181679,0.023406108830980193
2.0500000000000003,0.9418369978726708,0.6514444208525872,0.023345040775543047
2.1,0.9418057874207568,0.6515141480342826,0.023284477526810173
2.15,0.941773400232472,0.6515828639444045,0.023224411858790883
2.2,0.9417398537638625,0.6516505252886051,0.023164836469388002
2.25,0.9417051662557551,0.6517170892884431,0.02310574398518577
2.3000000000000003,0.9416693567250104,0.6517825137091517,0.023047126966139284
2.35,0.9416324449552056,0.6518467568872737,0.022988977910159383
2.4000000000000004,0.9415944514867499,0.6519097777581406,0.022931289257587292
2.45,0.9415553976064357,0.6519715358831901,0.022874053395553665
2.5,0.941515305336424,0.6520319914770982,0.02281726266221721
2.5500000000000003,0.9414741974226722,0.6520911054347166,0.02276090935087848
2.6,0.9414320973228022,0.6521488393577964,0.02270498571396489
2.6500000000000004,0.941389029193416,0.6522051555814835,0.022649483966883474
2.7,0.9413450178768622,0.6522600172005685,0.02259439629173837
2.75,0.9413000888874585,0.6523133880954742,0.022539714840910562
2.8000000000000003,0.941254268397174,0.6523652329579648,0.022485431740497806
2.85,0.9412075832207792,0.6524155173165563,0.022431539093613225
2.9000000000000004,0.94116006080047,0.6524642075616145,0.022378028983541565
2.95,0.9411117291899695,0.6525112709701163,0.022324893476752546
3,0.9410626170014759,0.6525566756723215,0.02227212462653828
3.0500000000000003,0.9410127535088488,0.652600390858919,0.022219714472897785
3.1,0.940962168495382,0.6526423866061372,0.0221676550487024
3.1500000000000004,0.9409108922877772,0.6526826339716368,0.022115938380538387
3.2,0.9408589557413215,0.6527211050238801,0.022064556491032363
3.25,0.9408063902170186,0.652757772858515,0.02201350140110388
3.3000000000000003,0.9407532275622664,0.6527926116201618,0.02196276513200953
3.35,0.940699500091112,0.6528255965237967,0.02191233970725475
3.4000000000000004,0.9406452405640806,0.6528567038756141,0.021862217154378777
3.45,0.9405904821675841,0.652885911093345,0.02181238950661883
3.5,0.9405352584929211,0.6529131967260113,0.021762848804457797
3.5500000000000003,0.9404796035148858,0.6529385404730922,0.021713587097060588
3.6,0.9404235515699975,0.6529619232030798,0.021664596443604796
3.6500000000000004,0.9403671373343652,0.6529833269713999,0.02161586891451155
3.7,0.9403103958012056,0.6530027350376736,0.02156739659258292
3.75,0.9402533622580266,0.6530201318822966,0.0215191715740525
3.8000000000000003,0.940196072263496,0.6530355032223112,0.021471185969556262
3.85,0.9401385616240107,0.6530488360265478,0.021423431905030908
3.9000000000000004,0.9400808663699833,0.6530601185300108,0.021375901522547376
3.95,0.940023022731868,0.6530693402474866,0.02132858698108737
4,0.9399650671159376,0.6530764919863472,0.02128148045727102
4.05,0.9399070360798378,0.6530815658585295,0.021234574146043995
4.1000000000000005,0.9398489663079336,0.6530845552916634,0.02118786026133259
4.15,0.9397908945864688,0.6530854550393288,0.02114133103667547
4.2,0.9397328577785605,0.6530842611904176,0.02109497872584084
4.25,0.9396748927990468,0.6530809711775797,0.02104879560343803
4.3,0.9396170365892107,0.6530755837847311,0.021002773965532386
4.3500000000000005,0.9395593260914019,0.6530680991536045,0.020956906130272505
4.4,0.9395017982235757,0.6530585187893234,0.020911184438538965
4.45,0.9394444898537745,0.6530468455649782,0.020865601254623344
4.5,0.9393874377745719,0.6530330837251909,0.02082014896694671
4.55,0.9393306786775026,0.6530172388886477,0.02077481998882632
4.6000000000000005,0.939274249127502,0.6529993180495868,0.020729606759299336
4.65,0.9392181855373758,0.6529793295782254,0.020684501744012155
4.7,0.9391625241423259,0.6529572832201138,0.020639497436183787
4.75,0.9391073009745535,0.6529331900944058,0.020594586357651507
4.800000000000001,0.9390525518379634,0.6529070626910312,0.020549761060006753
4.8500000000000005,0.9389983122829929,0.6528789148667682,0.0205050141258289
4.9,0.9389446175815879,0.6528487618402021,0.02046033817002444
4.95,0.9388915027023506,0.6528166201855693,0.020415725841278463
5,0.9388390022858801,0.6527825078254792,0.020371169823625242
5.050000000000001,0.9387871506203309,0.6527464440225157,0.020326662838144154
5.1000000000000005,0.9387359816172102,0.6527084493697132,0.02028219764478687
5.15,0.9386855287874366,0.6526685457799123,0.020237767044341142
5.2,0.9386358252176857,0.6526267564739963,0.020193363880536226
5.25,0.9385869035470386,0.65258310596801306,0.0201489810422944
5.300000000000001,0.9385387959439605,0.6525376200591906,0.020104611466132433
5.3500000000000005,0.9384915340836284,0.6524903258108532,0.02006024813871649
5.4,0.9384451491256273,0.652441251536248,0.020015884099573264
5.45,0.9383996716920374,0.6523904267812969,0.01997151244395963
5.5,0.9383551318295689,0.6523378823392797,0.019927126327658782
5.550000000000001,0.9383115590283303,0.6522836501480113,0.019882718965951535
5.6000000000000005,0.938268982178116,0.6522277633201825,0.019838283639347042
5.65,0.9382274295404482,0.6521702561387591,0.0197938136979252
5.7,0.938186928776969,0.652111163947621,0.019749302559606767
5.75,0.938147506801586,0.6520505233562732,0.019704743728517347
5.800000000000001,0.9381091899009408,0.6519883719608213,0.01966013078349932
5.8500000000000005,0.9380720036656329,0.6519247484160215,0.019615457387776813
5.9,0.9380359729679394,0.6518596924161457,0.01957071729379266
5.95,0.9380011219489819,0.6517932446603776,0.0195259043472095
6,0.9379674740023484,0.651725446824938,0.019481012491480796
6.050000000000001,0.9379350517582319,0.6516563415344563,0.019436035772574786
6.1000000000000005,0.9379038770681691,0.6515859723325789,0.01939096834382928
6.15,0.9378739709903905,0.6515143836518321,0.019345804470930556
6.2,0.9378453537757869,0.6514416207827781,0.019300538537009755
6.25,0.9378180448545059,0.6513677298424949,0.01925516504784904
6.300000000000001,0.937792062823183,0.6512927577424177,0.019209678637189195
6.3500000000000005,0.9377674254328159,0.6512167521555766,0.019164074072129878
6.4,0.9377441495772896,0.6511397614832656,0.01911834625861315
6.45,0.9377222512828953,0.6510618348222924,0.019072490246800473
6.5,0.9377017456971702,0.6509830219274906,0.01902650123720869
6.550000000000001,0.9376826470802182,0.6509033731792945,0.018980374585975623
6.6000000000000005,0.9376649687960017,0.6508229395489621,0.018934105810508077
6.65,0.9376487233038164,0.6507417725618592,0.018887690595407645
6.7,0.9376339221508899,0.6506599242617174,0.01884112479819075
6.75,0.9376205759655767,0.6505774471743996,0.018794404455049405
6.800000000000001,0.9376086944512186,0.6504943942713529,0.018747525786609653
6.8500000000000005,0.9375982863806754,0.6504108189328272,0.01870048520367017
6.9,0.9375893595915251,0.650326774910895,0.01865327931290757
6.95,0.9375819209819325,0.6502423162923084,0.01860590492253526
7,0.9375759765071832,0.6501574974612304,0.018558359047902238
7.050000000000001,0.9375715311768784,0.6500723730618732,0.018510638917018377
7.1000000000000005,0.9375685890527882,0.6499869979610807,0.018462741975992552
7.15,0.937567153247356,0.6499014272108881,0.01841466589436976
7.2,0.9375672259228505,0.6498157160110901,0.018366408570353664
7.25,0.9375688082911598,0.64972991967185445,0.018317968135900774
7.300000000000001,0.937571900614219,0.6496440935764087,0.018269342961672614
7.3500000000000005,0.9375765022050653,0.6495582931438322,0.0182205316618324
7.4,0.937582611429514,0.6494725737919862,0.018171533098672674
7.45,0.9375902257084462,0.649386990900607,0.01812234638706087
7.5,0.9375993415207,0.6493015997745952,0.018072970898689526
7.550000000000001,0.9376099544065578,0.649216455607524,0.01802340626611853
7.6000000000000005,0.9376220589718174,0.649131613445397,0.01797365238659678
7.65,0.9376356488924418,0.6490471281506806,0.017923709425651052
7.7,0.9376507169197736,0.6489630543666326,0.017873577820430246
7.75,0.9376672548863079,0.6488794464819562,0.017823258282793412
7.800000000000001,0.9376852537120095,0.6487963585957971,0.017772751802130556
7.8500000000000005,0.9377047034111673,0.648713844483109,0.01772205964790548
7.9,0.9377255930997727,0.6486319575604078,0.017671183371910457
7.95,0.9377479110034129,0.6485507508519339,0.017620124810223046
8,0.937771644465667,0.6484702769562416,0.01756888608485581
8.05,0.9377967799569933,0.6483905880132365,0.017517469605090232
8.1,0.9378233030840989,0.6483117356716738,0.017465878068486818
8.15,0.9378511985997768,0.6482337710571381,0.017414114461563674
8.200000000000001,0.9378804504132024,0.6481567447405181,0.017362182060136823
8.25,0.9379110416006761,0.6480807067069914,0.017310084429315798
8.3,0.937942954416801,0.6480057063255337,0.01725782542314891
8.35,0.9379761703060848,0.6479317923189654,0.017205409183913126
8.4,0.9380106699149535,0.6478590127345475,0.01715284014104426
8.450000000000001,0.9380464331041671,0.6477874149151395,0.01710012300970367
8.5,0.938083438961625,0.6477170454709286,0.01704726278897865
8.55,0.9381216658155495,0.6476479502517417,0.016994264759714012
8.6,0.9381610912480377,0.6475801743199499,0.016941134481973454
8.65,0.9382016921089704,0.6475137619239718,0.01688787779212971
8.700000000000001,0.9382434445302661,0.6474487564723889,0.016834500799583336
8.75,0.9382863239404704,0.6473852005086732,0.016781009883110737
8.8,0.9383303050796706,0.6473231356865429,0.01672741168684261
8.85,0.9383753620147239,0.6472626027459447,0.016673713115874872
8.9,0.9384214681547897,0.6472036414896742,0.016619921331514687
8.950000000000001,0.9384685962671555,0.647146290760637,0.01656604374616504
9,0.9385167184933474,0.6470905884197562,0.01651208801785198
9.05,0.9385658063655137,0.6470365713245321,0.01645806204439928
9.1,0.9386158308230735,0.6469842753082558,0.01640397395725606
9.15,0.938666762229621,0.6469337351598832,0.01634983211498355
9.200000000000001,0.9387185703900739,0.6468849846045711,0.016295645096407758
9.25,0.9387712245680604,0.6468380562848783,0.016241421693445654
9.3,0.9388246935035339,0.6467929817426359,0.0161871709036129
9.35,0.9388789454306052,0.6467497914014878,0.016132901922221984
9.4,0.9389339480955874,0.6467085145501039,0.016078624134280028
9.450000000000001,0.9389896687752419,0.64666917932607,0.016024347106096362
9.5,0.9390460742952197,0.6466318127004511,0.015970080576610285
9.55,0.9391031310486868,0.6465964404630352,0.015915834448450183
9.600000000000001,0.9391608050151304,0.6465630872082557,0.015861618778735615
9.65,0.9392190617793333,0.646531776321793,0.01580744376963447
9.700000000000001,0.9392778665505135,0.6465025299678584,0.015753319758687854
9.75,0.9393371841816175,0.6464753690771592,0.015699257208915816
9.8,0.9393969791887631,0.6464503133355463,0.015645266698717384
9.850000000000001,0.9394572157708232,0.6464273811733445,0.015591358911578911
9.9,0.9395178578291435,0.6464065897553666,0.015537544625605023
9.950000000000001,0.9395788689873876,0.6463879549716086,0.01548383470288686
10,0.9396402126115024,0.6463714914286318,0.015430240078722722
10.05,0.9397018518297979,0.6463572124416244,0.015376771750706293
10.100000000000001,0.9397637495531326,0.6463451300271489,0.015323440767698178
10.15,0.9398258684952011,0.6463352548965721,0.015270258218696597
10.200000000000001,0.9398881711929155,0.6463275964501763,0.015217235221623233
10.25,0.9399506200268719,0.6463221627719558,0.015164382912040544
10.3,0.9400131772419021,0.6463189606250913,0.01511171243181699
10.350000000000001,0.9400758049676968,0.6463179954481104,0.015059234917756625
10.4,0.9401384652394983,0.6463192713517253,0.015006961490209777
10.450000000000001,0.9402011200188561,0.6463227911163526,0.014954903241681458
10.5,0.9402637312144364,0.6463285561903125,0.014903071225454277
10.55,0.9403262607028827,0.6463365666887064,0.01485147644424258
10.600000000000001,0.9403886703497182,0.6463468213929725,0.014800129838894489
10.65,0.9404509220302848,0.6463593177511192,0.014749042277158547
10.700000000000001,0.9405129776507132,0.6463740518786337,0.014698224542531437
10.75,0.9405747991689148,0.6463910185600656,0.014647687323203302
10.8,0.940636348615592,0.6464102112512854,0.014597441201116832
10.850000000000001,0.9406975881152578,0.6464316220824139,0.014547496641156281
10.9,0.940758479907259,0.6464552418614243,0.01449786398048225
10.950000000000001,0.9408189863667967,0.6464810600784132,0.01444855341802786
11,0.940879070025936,0.6465090649105396,0.014399575004171697
11.05,0.9409386935945976,0.6465392432276311,0.0143509386306025
11.100000000000001,0.940997819981526,0.6465715805984539,0.014302654020390401
11.15,0.941056412315225,0.6466060612976453,0.014254730718278968
11.200000000000001,0.9411144339648542,0.6466426683133081,0.014207178081212093
11.25,0.9411718485610782,0.6466813833552607,0.014160005269109231
11.3,0.9412286200168611,0.6467221868639452,0.014113221235902066
11.350000000000001,0.941284712548199,0.6467650580199868,0.014066834720845321
11.4,0.9413400906947799,0.6468099747544054,0.014020854240113782
11.450000000000001,0.9413947193405673,0.6468569137594711,0.013975288078697202
11.5,0.9414485637342943,0.6469058505002072,0.013930144282604168
11.55,0.9415015895098627,0.6469567592265315,0.013885430651385481
11.600000000000001,0.941553762706637,0.6470096129860348,0.013841154730987012
11.65,0.9416050497896247,0.6470643836373916,0.013797323806941349
11.700000000000001,0.9416554176695342,0.647121041864401,0.013753944897907006
11.75,0.9417048337227002,0.6471795571906492,0.013711024749563335
11.8,0.9417532658108678,0.6472398979947948,0.013668569828868504
11.850000000000001,0.9418006823008251,0.64730203152646415,0.013626586318687425
11.9,0.9418470520838743,0.6473659239227598,0.013585080112795725
11.950000000000001,0.941892344595133,0.6474315402253698,0.013544056811265089
12,0.9419365298326524,0.6474988443982757,0.01350352171623487
12.05,0.9419795783763452,0.6475677993460515,0.013463479828073789
12.100000000000001,0.9420214614067105,0.647638366932748,0.013423935841935176
12.15,0.9420621507233456,0.6477105080013544,0.013384894144708193
12.200000000000001,0.9421016187632347,0.6477841823938314,0.013346358812366938
12.25,0.942139838618802,0.6478593489717069,0.013308333607718555
12.3,0.9421767840557187,0.6479359656372289,0.013270821978550635
12.350000000000001,0.9422124295304535,0.6480139893550628,0.01323382705617762
12.4,0.942246750207553,0.6480933761745321,0.013197351654385051
12.450000000000001,0.9422797219766437,0.6481740812523847,0.013161398268769837
12.5,0.9423113214691394,0.6482560588760832,0.01312596907647402
12.55,0.9423415260746476,0.6483392624876059,0.013091065936308644
12.600000000000001,0.9423703139570576,0.6484236447077494,0.013056690389263876
12.65,0.9423976640703037,0.6485091573609242,0.013022843659400494
12.700000000000001,0.9424235561737861,0.6485957515004301,0.012989526655117496
12.75,0.9424479708474429,0.6486833774342037,0.012956739970789641
12.8,0.942470889506456,0.6487719847510254,0.012924483888768185
12.850000000000001,0.9424922944155826,0.6488615223471745,0.01289275838173741
12.9,0.9425121687030984,0.648951938453523,0.012861563115418891
12.950000000000001,0.9425304963743399,0.6490431806630531,0.012830897451614821
13,0.9425472623248357,0.6491351959587901,0.012800760451581109
13.05,0.9425624523530118,0.6492279307421348,0.012771150879720394
13.100000000000001,0.9425760531724623,0.6493213308615864,0.012742067207584598
13.15,0.9425880524237693,0.6494153416418419,0.012713507618176014
13.200000000000001,0.9425984386858646,0.6495099079132578,0.012685470010535516
13.25,0.9426072014869172,0.6496049740416652,0.012657952004605896
13.3,0.9426143313147383,0.6497004839585199,0.012630950946357996
13.350000000000001,0.9426198196266887,0.6497963811913804,0.012604463913166723
13.4,0.9426236588590808,0.6498926088946951,0.012578487719423792
13.450000000000001,0.9426258424360612,0.6499891098808901,0.012553018922373538
13.5,0.942626364777962,0.65008582665174,0.012528053828157904
13.55,0.942625221309114,0.6501827014300124,0.012503588498056323
13.600000000000001,0.9426224084651056,0.6502796761913701,0.012479618754905993
13.65,0.9426179236994807,0.6503766926965175,0.012456140189687789
13.700000000000001,0.942611765489863,0.6504736925235813,0.012433148168262832
13.75,0.9426039333434977,0.6505706171007075,0.01241063783824456
13.8,0.9425944278021993,0.6506674077388649,0.012388604135991091
13.850000000000001,0.9425832504466984,0.6507640056648399,0.012367041793702389
13.9,0.9425704039003744,0.6508603520544126,0.012345945346606903
13.950000000000001,0.9425558918323675,0.6509563880656962,0.012325309140222106
14,0.9425397189600617,0.651052054872632,0.01230512733767354
14.05,0.9425218910509275,0.6511472936986247,0.012285393927056843
14.100000000000001,0.9425024149237189,0.6512420458503043,0.01226610272882755
14.15,0.9424812984490145,0.6513362527514052,0.012247247403203224
14.200000000000001,0.9424585505490982,0.6514298559767473,0.012228821457563028
14.25,0.9424341811971682,0.6515227972863081,0.012210818253829712
14.3,0.9424082014158713,0.6516150186593733,0.012193231015819312
14.350000000000001,0.942380623275155,0.6517064623287537,0.012176052836544203
14.4,0.9423514598894291,0.651797070815057,0.012159276685455318
14.450000000000001,0.9423207254140348,0.6518867869610007,0.012142895415609648
14.5,0.9422884350410139,0.6519755539657563,0.01212690177074968
14.55,0.942254604994174,0.6520633154193124,0.012111288392281497
14.600000000000001,0.9422192525234446,0.6521500153368424,0.012096047826139053
