time,e,omega,d
0,0.942,0.6482532304803152,0.02633076200788132
0.05,0.9420198855106083,0.648355908733222,0.026245633304693712
0.1,0.9420380515302953,0.6484596679118023,0.026161320277862332
0.15000000000000002,0.9420544784193206,0.6485644181888883,0.0260778214618371
0.2,0.9420691502223015,0.6486700801155952,0.025995135158252785
0.25,0.942082047135383,0.6487765468136505,0.025913258625295116
0.30000000000000004,0.9420931550216536,0.6488837291974472,0.025832188942251994
0.35000000000000003,0.9421024604894461,0.6489915336362517,0.025751922647668204
0.4,0.9421099517714824,0.6490998657690845,0.025672455801442128
0.45,0.9421156187304431,0.6492086305657747,0.025593783997850734
0.5,0.9421194528766683,0.6493177324170252,0.025515902376174595
0.55,0.9421214473822822,0.649427075217168,0.02543880563227732
0.6000000000000001,0.9421215970940576,0.6495365624482783,0.02536248803064674
0.65,0.9421198985448098,0.6496460972649776,0.025286943416893245
0.7000000000000001,0.9421163499632934,0.6497555825798681,0.02521216523066173
0.75,0.9421109512825736,0.6498649211495237,0.025138146518914453
0.8,0.9421037041468476,0.6499740156609675,0.025064879949541156
0.8500000000000001,0.9420946119166891,0.6500827688185635,0.024992357825252828
0.9,0.9420836796726917,0.6501910834312497,0.024920572097715074
0.9500000000000001,0.9420709142174927,0.6502988625000383,0.02484951438187712
1,0.942056324076152,0.6504060093057128,0.024779175970452632
1.05,0.9420399194948709,0.6505124274966434,0.02470954784850878
1.1,0.9420217124380315,0.6506180211766517,0.02464062070812051
1.1500000000000001,0.9420017165835425,0.6507226949928482,0.02457238496304748
1.2000000000000002,0.9419799473164787,0.6508263542233684,0.02450483076339199
1.25,0.9419564217209991,0.6509289048649355,0.024437948010197
1.3,0.9419311585705393,0.6510302537201758,0.02437172636994458
1.35,0.9419041783162649,0.6511303084846111,0.024306155288916165
1.4000000000000001,0.9418755030737853,0.6512289778332588,0.024241224007377302
1.4500000000000002,0.9418451566081211,0.6513261715067636,0.02417692157355124
1.5,0.9418131643169247,0.6514218003969892,0.024113236857347054
1.55,0.9417795532119564,0.651515776631997,0.024050158563809897
1.6,0.9417443518988154,0.6516080136603426,0.023987675246262653
1.6500000000000001,0.9417075905549358,0.6516984263346121,0.0239257753191103
1.7000000000000002,0.94166930090585,0.6517869309941308,0.023864447070280247
1.75,0.9416295161997336,0.6518734455467713,0.023803678673274056
1.8,0.9415882711802414,0.6519578895497874,0.023743458198808166
1.85,0.9415456020576491,0.6520401842896024,0.023683773626023516
1.9000000000000001,0.9415015464783191,0.6521202528604791,0.023624612853246237
1.9500000000000002,0.9414561434925064,0.6521980202419988,0.023565963708284114
2,0.9414094335205307,0.6522734133752737,0.023507813958245805
2.0500000000000003,0.9413614583173336,0.6523463612378221,0.02345015131887242
2.1,0.9413122609354515,0.6524167949170279,0.02339296346337351
2.15,0.9412618856864292,0.6524846476821101,0.023336238030762
2.2,0.9412103780258864,0.6525498549114429,0.02327996263507075
2.25,0.9411577847580042,0.6526123546138599,0.023224124867276184
2.3000000000000003,0.9411041537152848,0.6526720870065575,0.02316871230919776
2.35,0.9410495338212757,0.6527289947586133,0.023113712536512683
2.4000000000000004,0.9409939750516294,0.6527830230704025,0.023059113124707018
2.45,0.9409375283788001,0.6528341197205935,0.023004901654557593
2.5,0.940880245723471,0.6528822351251667,0.02295106571703471
2.5500000000000003,0.9408221799048235,0.6529273223946173,0.022897592917737675
2.6,0.9407633845896349,0.6529693373889336,0.022844470880889124
2.6500000000000004,0.9407039142402324,0.6530082387702596,0.022791687252911124
2.7,0.9406438240613662,0.6530439880531609,0.022739229705602552
2.75,0.9405831699460615,0.6530765496524071,0.022687085938940543
2.8000000000000003,0.9405220084205032,0.6531058909281823,0.022635243683530634
2.85,0.94046039658802,0.6531319822286334,0.022583690702731904
2.9000000000000004,0.9403983920722305,0.6531547969296695,0.02253241479448495
2.95,0.9403360529700227,0.6531743115583474,0.022481403794032316
3,0.9402734377638308,0.6531905056123076,0.022430645572666885
3.0500000000000003,0.9402106052823753,0.6532033617183053,0.022380128040094458
3.1,0.9401476146474458,0.6532128657025942,0.022329839145966864
3.1500000000000004,0.9400845251944815,0.6532190063745917,0.022279766877510702
3.2,0.9400213964585625,0.65322177618881,0.022229899268358153
3.25,0.9399582880541277,0.6532211705592402,0.02218022439122455
3.3000000000000003,0.9398952596407832,0.6532171881369702,0.022130730360828525
3.35,0.9398323708622449,0.6532098308423061,0.022081405335054653
3.4000000000000004,0.9397696812787477,0.6531991039424768,0.022032237516679168
3.45,0.9397072503141471,0.6531850158289378,0.021983215151041333
3.5,0.9396451371918212,0.6531675781536485,0.021934326528375667
3.5500000000000003,0.9395834008723577,0.6531468058709625,0.021885559985478923
3.6,0.9395221000150036,0.6531227169833245,0.021836903903151326
3.6500000000000004,0.9394612928529007,0.6530953331852917,0.02178834671704417
3.7,0.939401037195253,0.6530646791252447,0.021739876909861514
3.75,0.9393413903487743,0.6530307826598918,0.021691483016092635
3.8000000000000003,0.9392824090551128,0.6529936748528152,0.021643153624750004
3.85,0.9392241494146568,0.6529533900140261,0.0215948773833864
3.9000000000000004,0.9391666668747749,0.6529099654517744,0.02154664299690336
3.95,0.9391100161473677,0.652863441571038,0.021498439232891138
4,0.9390542511440092,0.6528138618800204,0.021450254926145572
4.05,0.9389994249831893,0.6527612727182066,0.021402078977403326
4.1000000000000005,0.938945589766286,0.6527057238202206,0.021353900372005283
4.15,0.9388927967041149,0.6526472675903895,0.021305708170451923
4.2,0.9388410960017973,0.6525859593085648,0.02125749151860058
4.25,0.9387905368013857,0.6525218570933436,0.02120923965424045
4.3,0.9387411671377714,0.6524550218235812,0.02116094191314066
4.3500000000000005,0.9386930338908044,0.6523855170761594,0.02111258773593867
4.4,0.9386461827386743,0.6523134090608033,0.021064166675559697
4.45,0.9386006581127738,0.6522387665518075,0.021015668405131444
4.5,0.9385565031540931,0.6521616608167422,0.020967082726390737
4.55,0.9385137596711893,0.6520821655422698,0.020918399578577055
4.6000000000000005,0.9384724680997832,0.652000356757193,0.020869609047803727
4.65,0.9384326674640191,0.6519163127528618,0.020820701376894908
4.7,0.9383943953394344,0.6518301140010709,0.020771666975673644
4.75,0.9383576878176698,0.6517418430695876,0.020722496431683595
4.800000000000001,0.9383225794729565,0.6516515845354446,0.0206731805213241
4.8500000000000005,0.9382891033304054,0.6515594248961475,0.020623710221375893
4.9,0.9382572908361265,0.6514654524789382,0.020574076720891944
4.95,0.9382271718291998,0.6513697573482644,0.020524271433425573
5,0.9381987745155128,0.651272431211603,0.020474286009565558
5.050000000000001,0.9381721254442362,0.651173567326935,0.020424112349330545
5.1000000000000005,0.9381472494831928,0.6510732603968816,0.02037374261640893
5.15,0.9381241698002311,0.6509716064772388,0.020323169250470313
5.2,0.9381029078448979,0.6508687028790114,0.02027238498043493
5.25,0.938083483330938,0.6507646480651702,0.02022138283843402
5.300000000000001,0.9380659142217171,0.6506595415503624,0.02017015617333948
5.3500000000000005,0.9380502167173237,0.6505534837987434,0.02011869866451366
5.4,0.9380364052435639,0.6504465761224688,0.020067004335399145
5.45,0.9380244924432852,0.6503389205822384,0.020015067566742796
5.5,0.9380144891685612,0.6502306198807908,0.019962883110653057
5.550000000000001,0.9380064044754941,0.6501217772615272,0.019910446103791977
5.6000000000000005,0.9380002456207431,0.6500124964095051,0.019857752080105564
5.65,0.9379960180594316,0.6499028813396341,0.019804796984980215
5.7,0.9379937254455466,0.6497930363019718,0.019751577186914226
5.75,0.9379933696336913,0.6496830656814664,0.019698089489676412
5.800000000000001,0.9379949506824335,0.6495730738935555,0.019644331144677108
5.8500000000000005,0.9379984668595616,0.6494631652844353,0.019590299862366906
5.9,0.938003914649041,0.6493534440307892,0.01953599382331463
5.95,0.9380112887594199,0.6492440140413707,0.01948141168867747
6,0.9380205821337916,0.6491349788619694,0.01942655260980504
6.050000000000001,0.9380317859616806,0.6490264415745824,0.019371416238014853
6.1000000000000005,0.9380448896922029,0.6489185047028677,0.019316002733115067
6.15,0.9380598810487497,0.6488112701177413,0.019260312771359967
6.2,0.9380767460451421,0.6487048389440808,0.01920434755269038
6.25,0.9380954690032061,0.6485993114687608,0.019148108807203062
6.300000000000001,0.9381160325717253,0.6484947870500962,0.019091598800813382
6.3500000000000005,0.9381384177467377,0.6483913640287562,0.0190348203400779
6.4,0.938162603892399,0.6482891396430319,0.018977776776030568
6.45,0.9381885687658374,0.6481882099347734,0.018920472007596813
6.5,0.9382162885397974,0.6480886696714048,0.01886291048339797
6.550000000000001,0.9382457378275683,0.6479906122643782,0.01880509720288257
6.6000000000000005,0.9382768897100745,0.6478941296853833,0.01874703771667575
6.65,0.9383097157632767,0.6477993123878286,0.018688738125746444
6.7,0.9383441860869675,0.6477062492290964,0.018630205079565025
6.75,0.9383802693342224,0.6476150273953489,0.01857144577333523
6.800000000000001,0.9384179327412341,0.64752573233021,0.01851246794415105
6.8500000000000005,0.9384571421599722,0.647438447659989,0.018453279866055168
6.9,0.9384978620903601,0.6473532551249346,0.01839389034410578
6.95,0.938540055678295,0.6472702344546928,0.018334308721597557
7,0.9385836848398619,0.6471894634414522,0.01827454483595267
7.050000000000001,0.9386287102411894,0.6471110177955828,0.018214609031698
7.1000000000000005,0.9386750913160752,0.6470349710567033,0.018154512157564976
7.15,0.9387227863935216,0.6469613946996513,0.01809426551804708
7.2,0.9387717524974519,0.6468903576339647,0.01803388095925149
7.25,0.9388219456520761,0.6468219266282025,0.01797337074583195
7.300000000000001,0.9388733208172132,0.6467561660813567,0.017912747589112443
7.3500000000000005,0.938925831920791,0.646693137955902,0.017852024634936757
7.4,0.9389794319065499,0.6466329017428205,0.017791215444354594
7.45,0.9390340727745334,0.6465755144149214,0.017730333976694934
7.5,0.9390897056220477,0.6465210303820066,0.01766939457177654
7.550000000000001,0.9391462806851167,0.6464695014481945,0.017608411931280564
7.6000000000000005,0.9392037473804283,0.6464209767714212,0.01754740109931306
7.65,0.9392620543278702,0.6463755027490397,0.017486377450393758
7.7,0.9393211494453125,0.6463331231699085,0.017425356647097653
7.75,0.9393809799590487,0.6462938790691417,0.017364354631899122
7.800000000000001,0.9394414924367975,0.6462578086590335,0.017303387609360777
7.8500000000000005,0.9395026328792199,0.6462249475127958,0.01724247200447897
7.9,0.9395643466421372,0.6461953279706464,0.0171816244868402
7.95,0.9396265786225902,0.646168979735108,0.01712086189150328
8,0.9396892732470493,0.6461459296176336,0.017060201216645556
8.05,0.9397523745138665,0.6461262014989033,0.016999659599979743
8.1,0.9398158260342572,0.6461098162464642,0.016939254294144484
8.15,0.9398795711021755,0.6460967919031545,0.016879002634618962
8.200000000000001,0.9399435527239909,0.6460871435512673,0.016818922018664337
8.25,0.9400077136595317,0.64608088326004,0.01675902988100856
8.3,0.9400719964848561,0.6460780203027608,0.016699343665976744
8.35,0.9401363435988924,0.6460785605489973,0.01663988080371843
8.4,0.9402006973210504,0.6460825071202666,0.016580658678659363
8.450000000000001,0.9402649999149043,0.64608986013988845,0.016521694606842507
8.5,0.9403291936349343,0.6461006167127772,0.016463005809652608
8.55,0.9403932207778863,0.6461147708633276,0.01640460938352651
8.6,0.9404570237247379,0.6461323137476077,0.0163465222839406
8.65,0.9405205449887694,0.6461532335346629,0.016288761294912583
8.700000000000001,0.9405837272632326,0.6461775153733037,0.01623134300228649
8.75,0.9406465134527039,0.6462051416290158,0.016174283784820703
8.8,0.9407088467650214,0.6462360912989241,0.016117599745689052
8.85,0.9407706707156005,0.6462703406879301,0.01606130673482608
8.9,0.9408319291863046,0.646307863176954,0.016005420309674334
8.950000000000001,0.9408925664747786,0.6463486292235455,0.015949955710709323
9,0.9409525273544003,0.6463926063239893,0.01589492783061879
9.05,0.94101175708639,0.6464397592367159,0.015840351217458904
9.1,0.9410702014847228,0.6464900498883454,0.015786240039869878
9.15,0.9411278069686531,0.6465434373623069,0.015732608062514766
9.200000000000001,0.9411845205609982,0.6465998781416795,0.015679468658022767
9.25,0.9412402900628828,0.6466593255834051,0.01562683470471346
9.3,0.9412950639631226,0.6467217305744118,0.015574718659773841
9.35,0.941348791530418,0.6467870413332395,0.015523132509938814
9.4,0.9414014228631576,0.6468552034324164,0.015472087752918133
9.450000000000001,0.9414529089554436,0.6469261597883067,0.015421595371160664
9.5,0.9415032016782131,0.6469998508828146,0.015371665853845234
9.55,0.9415522538583089,0.6470762147012653,0.015322309163534905
9.600000000000001,0.9416000193334148,0.6471551867448306,0.015273534717767767
9.65,0.9416464529165612,0.6472367002650452,0.015225351419996693
9.700000000000001,0.9416915106469266,0.6473206858325811,0.015177767539927684
9.75,0.9417351496062724,0.6474070719326703,0.01513079082561327
9.8,0.9417773280405222,0.6474957848142319,0.015084428451987819
9.850000000000001,0.9418180054072495,0.6475867485340988,0.015038687010987841
9.9,0.9418571424081577,0.647679885033344,0.014993572510282079
9.950000000000001,0.941894701027282,0.6477751141998567,0.014949090369535265
10,0.9419306445685617,0.6478723539326644,0.014905245417732983
10.05,0.9419649376925804,0.647971520208108,0.014862041891609336
10.100000000000001,0.9419975464524329,0.6480725271478734,0.0148194834351698
10.15,0.9420284383286817,0.6481752870888244,0.01477757310029532
10.200000000000001,0.9420575822633608,0.6482797106545952,0.0147363133484127
10.25,0.9420849486929875,0.6483857068288967,0.014695706053213367
10.3,0.9421105095805354,0.6484931830304885,0.014655752504399511
10.350000000000001,0.9421342384463325,0.6486020451897663,0.01461645341243402
10.4,0.9421561103968933,0.6487121978243311,0.0145778089140677
10.450000000000001,0.9421761021562917,0.6488235441258668,0.014539818579549033
10.5,0.9421941920913471,0.6489359860357714,0.014502481419835483
10.55,0.9422103602374577,0.6490494243265705,0.01446579589498267
10.600000000000001,0.9422245883244739,0.6491637586882503,0.014429759923641686
10.65,0.9422368598000262,0.6492788878128388,0.014394370893154988
10.700000000000001,0.94224715985181,0.6493947094812554,0.014359625670544607
10.75,0.9422554754283182,0.649511120650282,0.014325520614051148
10.8,0.9422617952575,0.6496280175386188,0.014292051585157367
10.850000000000001,0.9422661098655356,0.6497452957197115,0.014259213961941386
10.9,0.9422684115928626,0.6498628502111197,0.014227002652484543
10.950000000000001,0.9422686946084643,0.6499805755626015,0.01419541210845548
11,0.9422669549244179,0.6500983659565354,0.014164436340975296
11.05,0.9422631904062799,0.6502161152941415,0.014134068934636899
11.100000000000001,0.9422574007828554,0.6503337172875636,0.01410430306269911
11.15,0.9422495876549214,0.6504510655566609,0.014075131503273124
11.200000000000001,0.9422397545015951,0.6505680537227049,0.01404654665524494
11.25,0.9422279066850631,0.6506845755036614,0.014018540554632936
11.3,0.9422140514536104,0.6508005248087336,0.013991104890937682
11.350000000000001,0.942198197942613,0.650915795830899,0.013964231023248373
11.4,0.9421803571741492,0.6510302831460022,0.013937909997517525
11.450000000000001,0.9421605420544289,0.6511438818070576,0.013912132563038214
11.5,0.9421387673696371,0.651256487436414,0.013886889188515201
11.55,0.9421150497793287,0.6513679963299212,0.013862170080175467
11.600000000000001,0.9420894078085242,0.651478305545284,0.013837965197046888
11.65,0.942061861837836,0.6515873129957795,0.013814264267010466
11.700000000000001,0.9420324340914601,0.6516949175480037,0.013791056803422073
11.75,0.942001148623353,0.6518010191154763,0.013768332120816329
11.8,0.941968031301331,0.6519055187530017,0.013746079350512313
11.850000000000001,0.9419331097895449,0.65200831874952,0.013724287455741727
11.9,0.941896413529258,0.6521093227180794,0.013702945245997111
11.950000000000001,0.9418579737167495,0.6522084356915357,0.01368204139204021
12,0.9418178232800031,0.6523055642126273,0.013661564439663836
12.05,0.9417759968533546,0.6524006164242189,0.013641502823134944
12.100000000000001,0.9417325307502007,0.6524935021588013,0.013621844878160599
12.15,0.9416874629338073,0.6525841330270306,0.013602578854323654
12.200000000000001,0.9416408329862332,0.6526724225052261,0.013583692926964944
12.25,0.9415926820753827,0.6527582860217587,0.01356517520849184
12.3,0.9415430529213773,0.652841641039509,0.013547013758750219
12.350000000000001,0.9414919897567118,0.652922407147696,0.013529196596122122
12.4,0.9414395382901994,0.6530005061382695,0.013511711706264678
12.450000000000001,0.9413857456672683,0.6530758620860748,0.013494547050826514
12.5,0.9413306604269038,0.653148401431357,0.0134776905760488
12.55,0.9412743324581779,0.6532180530572942,0.01346113022030262
12.600000000000001,0.941216812954558,0.653284748366908,0.013444853921091831
12.65,0.9411581543671746,0.653348421357526,0.013428849621407281
12.700000000000001,0.9410984103574419,0.653409008691483,0.013413105275232706
12.75,0.9410376357451395,0.6534664497702168,0.013397608852951708
12.8,0.9409758864572314,0.6535206868023007,0.013382348345789297
12.850000000000001,0.9409132195019616,0.6535716649525597,0.01336731177063678
12.9,0.9408496928435924,0.6536193322040119,0.013352487171525158
12.950000000000001,0.9407853653907801,0.6536636395394885,0.013337862623336104
13,0.9407202969538213,0.6537045410415379,0.013323426234535895
13.05,0.9406545481210309,0.6537419937148381,0.013309166146316267
13.100000000000001,0.9405881803666736,0.65377595816812,0.013295070541053217
13.15,0.9405212557971061,0.65380639798207,0.013281127636401678
13.200000000000001,0.9404538371658059,0.6538332800116416,0.013267325687766592
13.25,0.940385987814571,0.6538565744536436,0.013253652989042011
13.3,0.9403177716160748,0.6538762549649964,0.013240097873364914
13.350000000000001,0.9402492528762443,0.6538922984667974,0.013226648710071998
13.4,0.9401804962909986,0.6539046853212741,0.013213293905327758
13.450000000000001,0.9401115668873291,0.6539133994119367,0.013200021901885977
13.5,0.9400425299347333,0.6539184279081998,0.01318682117519065
13.55,0.9399734509307922,0.6539197619972318,0.013173680239342005
13.600000000000001,0.9399043954663491,0.6539173961317807,0.013160587638975488
13.65,0.9398354291878839,0.6539113283384528,0.013147531949970611
13.700000000000001,0.9397666177296249,0.6539015602557355,0.013134501778767455
13.75,0.9396980266384374,0.6538880972225909,0.013121485761880677
13.8,0.9396297213145253,0.6538709480345308,0.013108472562899237
13.850000000000001,0.9395617669402323,0.653850125096622,0.013095450872461447
13.9,0.9394942284106609,0.6538256444719671,0.013082409408079079
13.950000000000001,0.9394271702902511,0.6537975256020105,0.01306933691150161
14,0.9393606566747889,0.6537657920222224,0.013056222153821035
14.05,0.9392947511925399,0.6537304705457532,0.01304305393084732
14.100000000000001,0.9392295169170554,0.6536915915469306,0.013029821064773225
14.15,0.9391650162973786,0.6536491889610418,0.013016512405533014
14.200000000000001,0.9391013110731365,0.6536033003296285,0.013003116833026173
14.25,0.9390384622609874,0.6535539665257908,0.012989623256889049
14.3,0.9389765300628486,0.6535012318644695,0.012976020619736862
14.350000000000001,0.9389155737936068,0.6534451441103276,0.01296229790053267
14.4,0.9388556518887542,0.6533857541759418,0.012948444115005791
14.450000000000001,0.9387968216556312,0.6533231167490261,0.012934448327557142
14.5,0.9387391394133836,0.6532572894860453,0.012920299648382809
14.55,0.9386826603650492,0.6531883332409042,0.012905987240856268
14.600000000000001,0.9386274385336822,0.6531163120237908,0.012891500327847047
