time,e,omega,d
0,0.942,0.6482532304803152,0.02633076200788132
0.05,0.9420201898955392,0.6483205725072247,0.026245549289939166
0.1,0.9420392721817097,0.6483886806505821,0.026160984703364254
0.15000000000000002,0.9420572330115166,0.6484575162104365,0.02607706789413845
0.2,0.942074060796991,0.6485270449131938,0.025993798367066778
0.25,0.9420897407190517,0.6485972205916486,0.02591117524776324
0.30000000000000004,0.9421042615207296,0.6486680046675563,0.025829197516286376
0.35000000000000003,0.9421176120412332,0.6487393565158853,0.025747863917853987
0.4,0.9421297818203251,0.6488112350925888,0.025667172975776555
0.45,0.9421407611016837,0.6488835989528473,0.025587122994858692
0.5,0.9421505408420083,0.648956406276929,0.025507712063624288
0.55,0.9421591127187366,0.6490296148940127,0.025428938056938834
0.6000000000000001,0.9421664691374425,0.6491031823064612,0.02535079863880664
0.65,0.942172603238831,0.6491770657143634,0.025273291265352056
0.7000000000000001,0.9421775089053203,0.6492512220403365,0.02519641318797686
0.75,0.9421811807672034,0.6493256079545754,0.025120161456686066
0.8,0.9421836142083817,0.6494001799001355,0.02504453292357406
0.8500000000000001,0.9421848053716646,0.6494748941184388,0.02496952424646301
0.9,0.9421847511636241,0.6495497066749879,0.024895131892684982
0.9500000000000001,0.9421834492590012,0.649624573485276,0.024821352142999308
1,0.9421808981046538,0.6496994503408811,0.02474818109563642
1.05,0.9421770969230419,0.649774292935727,0.024675614670459308
1.1,0.9421720457152422,0.649849056892503,0.024603648613233692
1.1500000000000001,0.942165745263486,0.6499236977892223,0.02453227849999777
1.2000000000000002,0.9421581971332145,0.6499981711859107,0.024461499741522532
1.25,0.9421494036746468,0.6500724326514076,0.0243913075878534
1.3,0.9421393680238535,0.6501464377902674,0.02432169713292406
1.35,0.9421280941033311,0.6502201422697448,0.0242526633192333
1.4000000000000001,0.9421155866220748,0.6502935018468513,0.024184200942575687
1.4500000000000002,0.9421018510751423,0.6503664723954671,0.02411630465681695
1.5,0.9420868937427047,0.650439009933493,0.024048968978705038
1.55,0.9420707216885836,0.650511070650029,0.02398218829270789
1.6,0.9420533427582678,0.6505826109325625,0.023915956855869027
1.6500000000000001,0.9420347655764076,0.650653587394152,0.023850268802672204
1.7000000000000002,0.9420149995437854,0.6507239569005906,0.023785118149906626
1.75,0.941994054833758,0.6507936765975337,0.023720498801524197
1.8,0.9419719423881701,0.6508627039375752,0.02365640455348062
1.85,0.9419486739127383,0.6509309967072564,0.023592829098552325
1.9000000000000001,0.9419242618719029,0.6509985130539919,0.023529766031121394
1.9500000000000002,0.9418987194831469,0.6510652115128962,0.023467208851920916
2,0.9418720607107837,0.6511310510334956,0.02340515097273349
2.0500000000000003,0.9418443002592128,0.6511959910063081,0.023343585721035884
2.1,0.9418154535656434,0.6512599912892758,0.02328250634458302
2.15,0.9417855367922883,0.6513230122340334,0.023221906015924977
2.2,0.9417545668180288,0.6513850147119947,0.02316177783685084
2.25,0.9417225612295538,0.651445960140244,0.023102114842753672
2.3000000000000003,0.9416895383119742,0.651505810507211,0.023042910006911187
2.35,0.9416555170389168,0.6515645283981164,0.02298415624467708
2.4000000000000004,0.9416205170621005,0.6516220770201685,0.022925846417578357
2.45,0.9415845587003996,0.6516784202274959,0.022867973337314367
2.5,0.941547662928397,0.6517335225457968,0.022810529769653615
2.5500000000000003,0.9415098513644355,0.6517873491966899,0.02275350843822494
2.6,0.9414711462581681,0.6518398661217486,0.02269690202819988
2.6500000000000004,0.9414315704776179,0.6518910400061997,0.02264070318986362
2.7,0.941391147495751,0.651940838302272,0.02258490454207229
2.75,0.9413499013765703,0.651989229252175,0.022529498675594672
2.8000000000000003,0.9413078567251841,0.6520361818591578,0.02247447815778729
2.85,0.9412650387893179,0.6520816660730075,0.022419835530651924
2.9000000000000004,0.9412214733136015,0.6521256526348772,0.02236556331983617
2.95,0.9411771865739004,0.652168113163285,0.022311654034995198
3,0.9411322053646108,0.6522090201808514,0.02225810017247695
3.0500000000000003,0.9410865569781522,0.652248347129377,0.02220489421811373
3.1,0.9410402691879173,0.6522860683896555,0.022152028649744186
3.1500000000000004,0.9409933702308406,0.6523221593008598,0.022099495939617252
3.2,0.9409458887895787,0.6523565961793958,0.022047288556682056
3.25,0.9408978539743064,0.6523893563372071,0.021995398968767683
3.3000000000000003,0.9408492953041434,0.6524204180995122,0.021943819644655114
3.35,0.940800242688225,0.6524497608219592,0.021892543056044562
3.4000000000000004,0.9407507264064282,0.6524773649071778,0.021841561679421684
3.45,0.9407007770897684,0.6525032118207142,0.0217908679978265
3.5,0.9406504257004807,0.652527284106327,0.02174045450252919
3.5500000000000003,0.9405997035118002,0.6525495654006311,0.021690313694617366
3.6,0.9405486420874559,0.6525700404470708,0.02164043808649952
3.6500000000000004,0.9404972732608935,0.6525886951092039,0.021590820203329846
3.7,0.9404456291142442,0.6526055163832839,0.021541452584359813
3.75,0.9403937419570546,0.6526204924101202,0.02149232778422211
3.8000000000000003,0.9403416443047934,0.652633612486203,0.021443438374152884
3.85,0.9402893688571542,0.6526448670740767,0.021394776943158396
3.9000000000000004,0.9402369484761688,0.6526542478119464,0.02134633609913232
3.95,0.94018441616415,0.652661747522503,0.021298108469930258
4,0.9401318050414827,0.6526673602209548,0.021250086704408047
4.05,0.9400791483242781,0.6526710811222475,0.021202263473430672
4.1000000000000005,0.940026479301912,0.652672906647465,0.021154631470858613
4.15,0.9399738313144661,0.6526728344293957,0.021107183414518622
4.2,0.9399212377300878,0.652670863317252,0.021059912047165903
4.25,0.9398687319222913,0.652666993380535,0.02101281013744483
4.3,0.9398163472472153,0.6526612259120317,0.020965870480855173
4.3500000000000005,0.9397641170208602,0.6526535634299364,0.020919085900730935
4.4,0.9397120744963209,0.6526440096790874,0.02087244924923883
4.45,0.9396602528410363,0.652632569631312,0.020825953408403243
4.5,0.9396086851140741,0.6526192494848719,0.02077959129116468
4.55,0.9395574042434719,0.6526040566630048,0.020733355842478287
4.6000000000000005,0.9395064430036506,0.6525869998115553,0.020687240040459156
4.65,0.9394558339929245,0.6525680887956943,0.020641236897580788
4.7,0.9394056096111217,0.6525473346957197,0.020595339461932954
4.75,0.93935580203734,0.6525247498019418,0.020549540818545015
4.800000000000001,0.9393064432078518,0.6525003476086486,0.02050383409078045
4.8500000000000005,0.9392575647941821,0.6524741428071542,0.02045821244180818
4.9,0.9392091981813739,0.6524461512779292,0.02041266907615586
4.95,0.9391613744464636,0.6524163900818195,0.020367197241350173
5,0.9391141243371817,0.6523848774503541,0.020321790229648647
5.050000000000001,0.9390674782508989,0.6523516327751486,0.020276441379867404
5.1000000000000005,0.9390214662138352,0.6523166765964098,0.020231144079308615
5.15,0.9389761178605482,0.6522800305905497,0.020185891765791317
5.2,0.9389314624137198,0.6522417175569165,0.020140677929788648
5.25,0.9388875286642574,0.6522017614036526,0.020095496116674307
5.300000000000001,0.9388443449384286,0.6521601871624666,0.020050339930781053
5.3500000000000005,0.9388019391109141,0.6521170208975314,0.020005203033788006
5.4,0.9387603385673235,0.6520722897344828,0.019960079149621984
5.45,0.9387195701794141,0.6520260218580364,0.019914962067968407
5.5,0.9386796603263986,0.6519782464148719,0.019869845642003784
5.550000000000001,0.9386406347716277,0.6519289937012962,0.019824723804938053
5.6000000000000005,0.938602518759283,0.6518782949126347,0.019779590558523977
5.65,0.9385653369562039,0.651826182210585,0.019734439981422235
5.7,0.9385291134316143,0.6517726887081982,0.019689266232988306
5.75,0.9384938716446233,0.6517178484408718,0.019644063556241934
5.800000000000001,0.9384596344288313,0.6516616963435019,0.019598826281352226
5.8500000000000005,0.9384264239773557,0.6516042682270088,0.019553548829242772
5.9,0.9383942618283505,0.6515456007542215,0.01950822571529907
5.95,0.9383631688510281,0.6514857314151294,0.019462851553174374
6,0.9383331652321919,0.6514246985015304,0.019417421058689932
6.050000000000001,0.9383042704632861,0.6513625410810979,0.01937192905382484
6.1000000000000005,0.9382765033279735,0.6512992989708938,0.01932637047079021
6.15,0.9382498818902463,0.6512350127103514,0.019280740356181904
6.2,0.9382244234830768,0.6511697235337547,0.019235033875205646
6.25,0.9382001446979557,0.6511034733431622,0.019189246315829085
6.300000000000001,0.9381770613736418,0.6510363046773694,0.019143373093530015
6.3500000000000005,0.9381551885872748,0.6509682606850116,0.019097409755383436
6.4,0.9381345406453626,0.6508993850956769,0.019051351984456337
6.45,0.938115131074846,0.6508297221893645,0.019005195604429356
6.5,0.9380969726151752,0.6507593167666923,0.01895893658407344
6.550000000000001,0.9380800772108842,0.6506882141186386,0.018912571041772387
6.6000000000000005,0.9380644560047258,0.650616459995966,0.018866095250058654
6.65,0.9380501193313756,0.6505441005783864,0.018819505640149687
6.7,0.9380370767117103,0.6504711824434972,0.018772798806474898
6.75,0.9380253368476544,0.6503977525355127,0.018725971511183562
6.800000000000001,0.9380149076176,0.6503238581338209,0.01867902068862376
6.8500000000000005,0.938005796072394,0.6502495468213931,0.018631943449782237
6.9,0.9379980084318953,0.6501748664530694,0.018584737086674855
6.95,0.9379915500820948,0.6500998651237522,0.018537399076677456
7,0.9379864255727995,0.6500245911365287,0.0184899270867865
7.050000000000001,0.9379826386158759,0.6499490929707524,0.018442318977799122
7.1000000000000005,0.9379801920840476,0.6498734192501063,0.018394572808401993
7.15,0.9379790880102459,0.6497976187106757,0.01834668683915848
7.2,0.9379793275875054,0.6497217401690514,0.018298659536383575
7.25,0.9379809111694034,0.6496458324904921,0.01825048957589616
7.300000000000001,0.9379838382710335,0.6495699445571661,0.018202175846638184
7.3500000000000005,0.9379881075705115,0.6494941252364967,0.018153717454150512
7.4,0.9379937169110041,0.6494184233496351,0.018105113723895287
7.45,0.9380006633032775,0.6493428876400804,0.018056364204414824
7.5,0.9380089429287557,0.6492675667424713,0.01800746867031724
7.550000000000001,0.9380185511430843,0.6491925091515677,0.017958427125079248
7.6000000000000005,0.9380294824801906,0.6491177631914435,0.01790923980365679
7.65,0.938041730656833,0.6490433769849115,0.017859907174894316
7.7,0.9380552885776335,0.6489693984231986,0.017810429943724133
7.75,0.9380701483405818,0.6488958751358882,0.017760809053147086
7.800000000000001,0.9380863012430067,0.6488228544611516,0.01771104568598663
7.8500000000000005,0.9381037377880053,0.64875038341628255,0.017661141266408352
7.9,0.9381224476913183,0.6486785086685518,0.017611097461197586
7.95,0.9381424198886485,0.6486072765064,0.01756091618078814
8,0.9381636425434098,0.6485367328109826,0.01751059958003539
8.05,0.9381861030548979,0.6484669230280807,0.017460150058727645
8.1,0.9382097880668764,0.6483978921403964,0.01740957026183012
8.15,0.9382346834765669,0.6483296846402403,0.017358863079456038
8.200000000000001,0.9382607744440349,0.6482623445026298,0.017308031646560324
8.25,0.938288045401963,0.6481959151588068,0.017257079342351354
8.3,0.9383164800658015,0.6481304394701901,0.01720600978941715
8.35,0.9383460614442871,0.6480659597027707,0.017154826852562626
8.4,0.9383767718503229,0.6480025175019637,0.017103534637355165
8.450000000000001,0.9384085929122067,0.6479401538679259,0.017052137488376327
8.5,0.9384415055852026,0.6478789091313483,0.017000639987177994
8.55,0.9384754901634436,0.6478188229297348,0.016949046949941746
8.6,0.9385105262921589,0.6477599341841751,0.01689736342484104
8.65,0.9385465929802151,0.6477022810766189,0.016845594689105996
8.700000000000001,0.9385836686129636,0.6476459010276625,0.01679374624579147
8.75,0.9386217309653844,0.6475908306748526,0.01674182382024937
8.8,0.938660757215519,0.647537105851515,0.016689833356307002
8.85,0.938700723958182,0.6474847615661177,0.016637781012153526
8.9,0.9387416072189455,0.6474338319821695,0.016585673155937373
8.950000000000001,0.9387833824683841,0.6473843503986662,0.016533516361077923
9,0.9388260246365759,0.6473363492310845,0.016481317401295294
9.05,0.9388695081278495,0.6472898599929342,0.016429083245362627
9.1,0.9389138068357683,0.6472449132778679,0.016376821051585874
9.15,0.9389588941583455,0.6472015387423588,0.01632453816201648
9.200000000000001,0.939004743013481,0.6471597650889462,0.016272242096403006
9.25,0.9390513258546128,0.6471196200500569,0.016219940545888135
9.3,0.9390986146865743,0.6470811303724011,0.01616764136645805
9.35,0.939146581081651,0.6470443218019534,0.016115352572151742
9.4,0.9391951961958295,0.6470092190695144,0.01606308232803799
9.450000000000001,0.9392444307852286,0.6469758458768636,0.016010838942968654
9.5,0.9392942552227095,0.6469442248835006,0.015958630862116897
9.55,0.9393446395146527,0.6469143776939799,0.015906466659309722
9.600000000000001,0.9393955533179007,0.6468863248458422,0.01585435502916447
9.65,0.9394469659568528,0.6468600857981435,0.01580230477903928
9.700000000000001,0.9394988464407106,0.6468356789205841,0.015750324820807977
9.75,0.9395511634808641,0.6468131214832398,0.01569842416247019
9.8,0.9396038855084128,0.6467924296468978,0.01564661189960775
9.850000000000001,0.9396569806918146,0.6467736184539972,0.015594897206698844
9.9,0.9397104169546562,0.6467567018201775,0.015543289328301589
9.950000000000001,0.9397641619935385,0.6467416925264353,0.015491797570119054
10,0.9398181832960699,0.6467286022118907,0.015440431289957927
10.05,0.9398724481589611,0.6467174413671645,0.015389199888593299
10.100000000000001,0.9399269237062157,0.6467082193283682,0.015338112800552174
10.15,0.9399815769074091,0.6467009442717055,0.015287179484828623
10.200000000000001,0.9400363745960498,0.6466956232086886,0.015236409415543465
10.25,0.9400912834880163,0.6466922619819674,0.015185812072561663
10.3,0.9401462702000641,0.6466908652617748,0.015135396932080622
10.350000000000001,0.9402013012683954,0.6466914365429866,0.0150851734572027
10.4,0.9402563431672847,0.646693978142797,0.015035151088505273
10.450000000000001,0.9403113623277565,0.6466984911990101,0.01498533923462177
10.5,0.9403663251563047,0.6467049756689469,0.014935747262847033
10.55,0.9404211980536503,0.6467134303289691,0.014886384489780405
10.600000000000001,0.9404759474335299,0.646723852774618,0.014837260172019874
10.65,0.940530539741507,0.6467362394213697,0.014788383496920519
10.700000000000001,0.940584941473803,0.6467505855060055,0.014739763573430424
10.75,0.9406391191961365,0.6467668850885967,0.014691409423017124
10.8,0.9406930395625687,0.6467851310551054,0.014643329970697467
10.850000000000001,0.9407466693343441,0.6468053151205975,0.01459553403618369
10.9,0.9407999753987227,0.6468274278330695,0.01454803032515814
10.950000000000001,0.9408529247877955,0.6468514585778868,0.014500827420689056
11,0.940905484697274,0.6468773955828345,0.014453933774799541
11.05,0.9409576225052516,0.6469052259237763,0.014407357700201417
11.100000000000001,0.9410093057909237,0.6469349355309224,0.014361107362205666
11.15,0.9410605023532639,0.6469665091957052,0.014315190770820559
11.200000000000001,0.9411111802296451,0.6469999305782594,0.014269615773048507
11.25,0.941161307714401,0.6470351822155058,0.014224390045392112
11.3,0.9412108533773168,0.6470722455298367,0.014179521086579671
11.350000000000001,0.9412597860820446,0.6471111008384003,0.014135016210519893
11.4,0.9413080750044333,0.6471517273629824,0.014090882539495298
11.450000000000001,0.9413556896507639,0.6471941032404819,0.014047126997603184
11.5,0.941402599875886,0.6472382055339775,0.014003756304452816
11.55,0.9414487759012419,0.647284010244384,0.01396077696912681
11.600000000000001,0.9414941883327728,0.6473314923226926,0.013918195284414354
11.65,0.9415388081786977,0.6473806256827933,0.013876017321323422
11.700000000000001,0.9415826068671563,0.6474313832148756,0.013834248923878505
11.75,0.9416255562637059,0.6474837367994029,0.013792895704210082
11.8,0.9416676286886638,0.6475376573216562,0.013751963037941252
11.850000000000001,0.9417087969342863,0.6475931146868457,0.013711456059876694
11.9,0.9417490342817738,0.6476500778357783,0.013671379659998381
11.950000000000001,0.9417883145180934,0.6477085147610859,0.013631738479771944
12,0.9418266119526092,0.6477683925240005,0.013592536908767152
12.05,0.941863901433509,0.6478296772716756,0.013553779081595215
12.100000000000001,0.941900158364019,0.6478923342550449,0.013515468875165174
12.15,0.9419353587183973,0.6479563278472161,0.013477609906261026
12.200000000000001,0.9419694790576927,0.6480216215623887,0.013440205529440613
12.25,0.9420024965452615,0.648088178075292,0.013403258835256813
12.3,0.942034388962031,0.648155959241135,0.013366772648800882
12.350000000000001,0.942065134721499,0.6482249261160623,0.013330749528567264
12.4,0.9420947128844589,0.6482950389781055,0.013295191765638655
12.450000000000001,0.9421231031734393,0.6483662573486247,0.013260101383189402
12.5,0.9421502859868491,0.648438540014231,0.013225480136304885
12.55,0.9421762424128151,0.6485118450491795,0.013191329512113877
12.600000000000001,0.9422009542427023,0.6485861298382268,0.01315765073023034
12.65,0.9422244039843074,0.6486613510999422,0.013124444743500559
12.700000000000001,0.9422465748747122,0.6487374649104612,0.01309171223905102
12.75,0.9422674508927876,0.6488144267276752,0.01305945363963184
12.8,0.9422870167713377,0.6488921914158429,0.013027669105250037
12.850000000000001,0.9423052580088723,0.648970713270617,0.012996358535086546
12.9,0.9423221608809965,0.649049946044471,0.012965521569690237
12.950000000000001,0.9423377124514088,0.6491298429725184,0.012935157593441738
13,0.9423519005824949,0.649210356798711,0.012905265737279617
13.05,0.9423647139455074,0.649291439802405,0.012875844881680686
13.100000000000001,0.9423761420303215,0.6493730438252822,0.012846893659886087
13.15,0.9423861751547548,0.6494551202986154,0.012818410461364204
13.200000000000001,0.942394804473442,0.6495376202708633,0.012790393435501202
13.25,0.9424020219862548,0.649620494435584,0.012762840495509516
13.3,0.9424078205462553,0.6497036931596525,0.012735749322544437
13.350000000000001,0.9424121938671745,0.6497871665117695,0.012709117370018373
13.4,0.9424151365304052,0.6498708642912471,0.012682941868102393
13.450000000000001,0.9424166439915014,0.6499547360570594,0.01265721982840409
13.5,0.9424167125861723,0.6500387311571408,0.012631948048810782
13.55,0.9424153395357644,0.6501227987579205,0.01260712311848675
13.600000000000001,0.9424125229522211,0.6502068878740768,0.01258274142301304
13.65,0.9424082618425129,0.6502909473984988,0.012558799149658201
13.700000000000001,0.9424025561125275,0.6503749261324366,0.012535292292768199
13.75,0.9423954065704141,0.6504587728158294,0.012512216659263668
13.8,0.9423868149293729,0.6505424361577924,0.012489567874232534
13.850000000000001,0.942376783809883,0.6506258648672506,0.012467341386606007
13.9,0.9423653167413608,0.6507090076837,0.012445532474905985
13.950000000000001,0.9423524181632429,0.6507918134080842,0.012424136253051783
14,0.9423380934254868,0.6508742309337681,0.012403147676214346
14.05,0.9423223487884834,0.6509562092775925,0.012382561546705917
14.100000000000001,0.9423051914223759,0.6510376976109963,0.01236237251989345
14.15,0.942286629405779,0.6511186452911856,0.012342575110124064
14.200000000000001,0.9422666717238954,0.6511990018923374,0.012323163696650985
14.25,0.9422453282660225,0.6512787172368183,0.012304132529548643
14.3,0.9422226098224477,0.6513577414264038,0.0122854757356058
14.350000000000001,0.9421985280807275,0.6514360248734791,0.012267187324185752
14.4,0.9421730956213487,0.6515135183322062,0.01224926119304297
14.450000000000001,0.9421463259127665,0.6515901729296402,0.012231691134085836
14.5,0.9421182333058203,0.6516659401967759,0.012214470839075372
14.55,0.9420888330275239,0.6517407720995091,0.012197593905250262
14.600000000000001,0.9420581411742291,0.6518146210694943,0.012181053840868766
