time,e,omega,d
0,0.942,0.6482848842903546,0.02633076200788132
0.05,0.9420221859430763,0.6483199159586766,0.026244994360917213
0.1,0.9420438173791094,0.6483553721101384,0.026159725836383613
0.15000000000000002,0.9420648866320448,0.648391242641309,0.026074956115574057
0.2,0.9420853871227177,0.6484275185955799,0.02599068486952912
0.25,0.9421053102430208,0.6484641878962442,0.025906911601795913
0.30000000000000004,0.9421246491600733,0.6485012404324113,0.02582363582273139
0.35000000000000003,0.9421433968962821,0.6485386655400821,0.02574085696879288
0.4,0.9421615466565383,0.6485764524233834,0.025658574414840988
0.45,0.942179091829294,0.6486145901573434,0.025576787474473953
0.5,0.9421960259892244,0.6486530676914367,0.02549549540002031
0.55,0.9422123428995693,0.648691873852859,0.025414697382620248
0.6000000000000001,0.9422280365024442,0.6487309973571841,0.025334392556159335
0.65,0.9422431009595037,0.6487704267877449,0.02525457998510801
0.7000000000000001,0.9422575306120905,0.648810150626038,0.02517525867824641
0.75,0.9422713199989966,0.6488501572447961,0.025096427583807736
0.8,0.9422844638598976,0.6488904349107705,0.025018085589293634
0.8500000000000001,0.9422969571361053,0.6489309717891023,0.024940231522160274
0.9,0.9423087949725395,0.6489717559469083,0.0248628641501214
0.9500000000000001,0.9423199727196517,0.6490127753569047,0.024785982181478976
1,0.9423304859352889,0.6490540179010661,0.024709584265483316
1.05,0.942340330386497,0.6490954713743217,0.024633668992722308
1.1,0.9423495020512085,0.6491371234881621,0.02455823489552496
1.1500000000000001,0.9423579971200837,0.6491789618747494,0.02448328044844551
1.2000000000000002,0.9423658119979987,0.6492209740904482,0.024408804068707334
1.25,0.942372943305579,0.6492631476196042,0.024334804116696092
1.3,0.942379387880747,0.6493054698785259,0.024261278896498064
1.35,0.9423851427801321,0.6493479282193473,0.02418822665644783
1.4000000000000001,0.9423902052804259,0.6493905099339414,0.02411564558970257
1.4500000000000002,0.9423945728796727,0.6494332022578662,0.024043533834840786
1.5,0.9423982432984895,0.6494759923743345,0.02397188947648409
1.55,0.9424012144812215,0.6495188674182125,0.023900710545941423
1.6,0.9424034845970233,0.6495618144800399,0.023829995021874835
1.6500000000000001,0.9424050520408737,0.6496048206100743,0.023759740830986215
1.7000000000000002,0.942405915434517,0.6496478728223569,0.02368994584872406
1.75,0.9424060736273339,0.6496909580987998,0.0236206079000096
1.8,0.9424055256971391,0.6497340633932923,0.023551724759981428
1.85,0.9424042709509068,0.6497771756358248,0.023483294154757896
1.9000000000000001,0.942402308925422,0.6498202817366315,0.023415313762216356
1.9500000000000002,0.942399639387857,0.6498633685903475,0.023347781212788566
2,0.9423962623362737,0.64990642308018165,0.023280694090271357
2.0500000000000003,0.9423921780000503,0.6499494320821019,0.02321404993265173
2.1,0.9423873868402314,0.6499923824690339,0.023147846232945603
2.15,0.9423818895498025,0.6500352611150693,0.023082080440049346
2.2,0.9423756870538865,0.6500780548996847,0.02301674995960325
2.25,0.9423687805098634,0.6501207507119686,0.022951852154866146
2.3000000000000003,0.9423611713074111,0.6501633354548547,0.02288738434760026
2.35,0.9423528610684694,0.65020579604936235,0.022823343818965593
2.4000000000000004,0.9423438516471235,0.6502481194388394,0.022759727810422837
2.45,0.9423341451294097,0.6502902925932106,0.022696533524644145
2.5,0.9423237438330406,0.6503323025132255,0.022633758126430824
2.5500000000000003,0.942312650307052,0.6503741362347076,0.022571398743637176
2.6,0.9423008673313683,0.6504157808328029,0.0225094524680997
2.6500000000000004,0.9422883979162879,0.6504572234262251,0.022447916356570785
2.7,0.9422752453018898,0.6504984511814982,0.02238678743165614
2.75,0.9422614129573575,0.6505394513171927,0.02232606268275516
2.8000000000000003,0.9422469045802231,0.6505802111081568,0.022265739067003437
2.85,0.9422317240955307,0.6506207178897383,0.022205813510216693
2.9000000000000004,0.9422158756549189,0.6506609590619978,0.022146282907835303
2.95,0.9421993636356217,0.6507009220939117,0.02208714412586869
3,0.9421821926393893,0.6507405945275616,0.02202839400183895
3.0500000000000003,0.9421643674913271,0.6507799639823119,0.021970029345722814
3.1,0.9421458932386552,0.6508190181589713,0.02191204694089142
3.1500000000000004,0.9421267751493853,0.6508577448439378,0.021854443545047095
3.2,0.9421070187109187,0.6508961319133273,0.02179721589115651
3.25,0.9420866296285632,0.6509341673370808,0.0217403606883796
3.3000000000000003,0.9420656138239688,0.650971839183053,0.021683874622993527
3.35,0.9420439774334856,0.6510091356210772,0.021627754359311132
3.4000000000000004,0.94202172680644,0.6510460449270074,0.021571996540593316
3.45,0.9419988685033328,0.6510825554867352,0.021516597789954656
3.5,0.9419754092939574,0.6511186558001807,0.021461554711261786
3.5500000000000003,0.9419513561554398,0.6511543344852543,0.021406863890024042
3.6,0.9419267162702003,0.6511895802817905,0.021352521894275757
3.6500000000000004,0.9419014970238384,0.6512243820554505,0.0212985252754498
3.7,0.9418757060029384,0.6512587288015922,0.02124487056924185
3.75,0.9418493509928005,0.6512926096491063,0.021191554296465
3.8000000000000003,0.9418224399750951,0.6513260138642188,0.021138572963894212
3.85,0.9417949811254401,0.651358930854255,0.021085923065100303
3.9000000000000004,0.9417669828109065,0.6513913501713671,0.02103360108127303
3.95,0.9417384535874469,0.6514232615162219,0.020981603482032946
4,0.9417094021972524,0.6514546547416467,0.020929926726231743
4.05,0.9416798375660361,0.6514855198562346,0.02087856726274075
4.1000000000000005,0.9416497688002453,0.6515158470279052,0.020827521531227296
4.15,0.9416192051842027,0.6515456265874203,0.02077678596291875
4.2,0.9415881561771763,0.6515748490318533,0.02072635698135401
4.25,0.9415566314103826,0.6516035050280101,0.020676231003122186
4.3,0.9415246406839192,0.6516315854158024,0.020626404438588427
4.3500000000000005,0.9414921939636316,0.6516590812115681,0.020576873692606634
4.4,0.9414593013779128,0.6516859836113417,0.020527635165219008
4.45,0.9414259732144391,0.6517122839940696,0.020478685252342393
4.5,0.9413922199168409,0.6517379739247722,0.02043002034644122
4.55,0.94135805208131,0.651763045157649,0.020381636837187158
4.6000000000000005,0.9413234804531475,0.6517874896391262,0.020333531112105382
4.65,0.9412885159232487,0.6518112995108466,0.0202856995572075
4.7,0.9412531695245296,0.6518344671125977,0.020238138557611165
4.75,0.941217452428296,0.6518569849851806,0.020190844498146496
4.800000000000001,0.941181375940555,0.6518788458732144,0.020143813763949296
4.8500000000000005,0.9411449514982714,0.6519000427278778,0.02009704274104129
4.9,0.9411081906655705,0.6519205687095853,0.020050527816897465
4.95,0.9410711051298875,0.6519404171905967,0.02000426538100067
5,0.9410337066980663,0.6519595817575599,0.019958251825383726
5.050000000000001,0.9409960072924081,0.6519780562139839,0.019912483545159163
5.1000000000000005,0.9409580189466726,0.6519958345826421,0.019866956939036895
5.15,0.9409197538020307,0.6520129111079054,0.019821668409830063
5.2,0.9408812241029741,0.6520292802580017,0.019776614364949267
5.25,0.9408424421931798,0.6520449367272023,0.019731791216885584
5.300000000000001,0.9408034205113331,0.6520598754379353,0.0196871953836826
5.3500000000000005,0.94076417158691,0.6520740915428211,0.019642823289397822
5.4,0.9407247080359205,0.6520875804266335,0.019598671364553823
5.45,0.9406850425566158,0.6521003377081811,0.019554736046579476
5.5,0.9406451879251587,0.652112359242112,0.019511013780241674
5.550000000000001,0.9406051569912616,0.6521236411206375,0.019467501018067938
5.6000000000000005,0.9405649626737912,0.6521341796751764,0.019424194220760332
5.65,0.9405246179563438,0.6521439714779167,0.019381089857601074
5.7,0.940484135882792,0.6521530133432956,0.019338184406850357
5.75,0.9404435295528044,0.6521613023293964,0.01929547435613678
5.800000000000001,0.9404028121173409,0.6521688357392611,0.0192529562028409
5.8500000000000005,0.9403619967741241,0.6521756111221181,0.019210626454472312
5.9,0.9403210967630907,0.6521816262745243,0.01916848162904085
5.95,0.94028012536182215,0.6521868792414214,0.01912651825542229
6,0.940239095880959,0.6521913683171044,0.01908473287371918
6.050000000000001,0.9401980216595985,0.6521950920461033,0.019043122035617182
6.1000000000000005,0.9401569160606794,0.6521980492239754,0.019001682304737526
6.15,0.9401157924663543,0.6522002388980097,0.01896041025698612
6.2,0.9400746642733521,0.6522016603678414,0.0189193024808997
6.25,0.9400335448883325,0.6522023131859771,0.018878355577989742
6.300000000000001,0.9399924477232343,0.6522021971582278,0.018837566163084497
6.3500000000000005,0.9399513861906201,0.6522013123440533,0.018796930864669773
6.4,0.9399103736990171,0.6521996590568142,0.018756446325228937
6.45,0.9398694236482588,0.6521972378639321,0.01871610920158274
6.5,0.9398285494248285,0.6521940495869585,0.01867591616522938
6.550000000000001,0.9397877643972057,0.6521900953015514,0.018635863902685425
6.6000000000000005,0.9397470819112169,0.652185376337359,0.018595949115828028
6.65,0.9397065152853963,0.6521798942778119,0.018556168522239038
6.7,0.9396660778063529,0.6521736509598214,0.018516518855551375
6.75,0.9396257827241512,0.652166648473386,0.018476996865798314
6.800000000000001,0.9395856432477031,0.6521588891611044,0.018437599319766032
6.8500000000000005,0.9395456725401756,0.652150375617596,0.018398323001349998
6.9,0.939505883714416,0.652141110688829,0.018359164711915572
6.95,0.9394662898283942,0.6521310974713546,0.018320121270663365
7,0.9394269038806672,0.6521203393114503,0.018281189514999702
7.050000000000001,0.9393877388058653,0.6521088398041699,0.018242366300912694
7.1000000000000005,0.9393488074702032,0.6520966027923011,0.01820364850335429
7.15,0.939310122667016,0.652083632365232,0.01816503301662869
7.2,0.9392716971123248,0.6520699328577261,0.01812651675478753
7.25,0.9392335434404313,0.6520555088486059,0.018088096652032173
7.300000000000001,0.9391956741995438,0.6520403651593452,0.018049769663123487
7.3500000000000005,0.9391581018474363,0.6520245068525725,0.01801153276379937
7.4,0.9391208387471445,0.6520079392304844,0.01797338295120042
7.45,0.9390838971626958,0.6519906678331683,0.01793531724430388
7.5,0.9390472892548802,0.6519726984368392,0.017897332684366312
7.550000000000001,0.9390110270770601,0.6519540370519868,0.017859426335375093
7.6000000000000005,0.9389751225710218,0.6519346899214354,0.017821595284509016
7.65,0.9389395875628721,0.6519146635183193,0.01778383664260816
7.7,0.9389044337589777,0.65189396454397,0.017746147544653208
7.75,0.938869672741953,0.6518725999257206,0.0177085251502544
7.800000000000001,0.9388353159666954,0.6518505768146259,0.017670966644150167
7.8500000000000005,0.93880137475647,0.6518279025830996,0.017633469236715615
7.9,0.9387678602990461,0.6518045848224687,0.01759603016448085
7.95,0.9387347836428869,0.651780631340448,0.017558646690659267
8,0.9387021556933909,0.6517560501585349,0.017521316105685806
8.05,0.9386699872091918,0.6517308495093245,0.01748403572776508
8.1,0.9386382887985137,0.6517050378337479,0.017446802903429492
8.15,0.9386070709155843,0.6516786237782334,0.01740961500810711
8.200000000000001,0.9385763438571075,0.6516516161917933,0.01737246944669935
8.25,0.9385461177587984,0.6516240241230359,0.017335363654168292
8.3,0.938516402591978,0.6515958568171056,0.017298295096133436
8.35,0.9384872081602325,0.651567123712551,0.017261261269477825
8.4,0.9384585440961363,0.6515378344381235,0.01722425970296324
8.450000000000001,0.938430419858041,0.6515079988095078,0.017187287957854343
8.5,0.9384028447269297,0.6514776268259836,0.017150343628551373
8.55,0.9383758278033406,0.6514467286670236,0.017113424343231282
8.6,0.9383493780043571,0.6514153146888256,0.01707652776449683
8.65,0.9383235040606697,0.6513833954207839,0.01703965159003346
8.700000000000001,0.9382982145137057,0.6513509815618974,0.017002793553273433
8.75,0.9382735177128326,0.6513180839771195,0.016965951424067042
8.8,0.9382494218126326,0.6512847136936504,0.016929123009360204
8.85,0.9382259347702496,0.6512508818971714,0.016892306153878333
8.9,0.938203064342811,0.6512165999280259,0.016855498740815683
8.950000000000001,0.9381808180849227,0.6511818792773478,0.016818698692529967
9,0.9381592033462413,0.6511467315831371,0.016781903971241546
9.05,0.9381382272691188,0.6511111686262862,0.0167451125797367
9.1,0.9381178967863278,0.6510752023265592,0.016708322562074513
9.15,0.9380982186188602,0.651038844738525,0.01667153200429664
9.200000000000001,0.9380791992738051,0.6510021080474443,0.016634739035139456
9.25,0.9380608450423042,0.6509650045651156,0.016597941826747946
9.3,0.9380431619975866,0.6509275467256802,0.016561138595390656
9.35,0.9380261559930806,0.6508897470813867,0.016524327602175103
9.4,0.9380098326606066,0.6508516182983201,0.016487507153762872
9.450000000000001,0.9379941974086483,0.6508131731520934,0.01645067560308383
9.5,0.9379792554207049,0.6507744245235076,0.01641383135004858
9.55,0.9379650116537223,0.6507353853941776,0.01637697284225858
9.600000000000001,0.9379514708366048,0.6506960688421294,0.016340098575713075
9.65,0.9379386374688086,0.6506564880373688,0.016303207095512137
9.700000000000001,0.9379265158190142,0.6506166562374232,0.01626629699655499
9.75,0.9379151099238815,0.6505765867828591,0.01622936692423291
9.8,0.9379044235868833,0.6505362930927768,0.016192415575115804
9.850000000000001,0.9378944603772221,0.6504957886602837,0.01615544169763175
9.9,0.9378852236288269,0.6504550870479477,0.01611844409273866
9.950000000000001,0.93787671643943,0.6504142018832361,0.01608142161458718
10,0.9378689416697267,0.6503731468539343,0.0160443731711741
10.05,0.937861901942613,0.6503319357035547,0.016007297724985384
10.100000000000001,0.937855599642507,0.6502905822267318,0.015970194293627952
10.15,0.9378500369147474,0.6502491002646057,0.015933061950449422
10.200000000000001,0.9378452156650758,0.6502075037002002,0.015895899825144968
10.25,0.9378411375591954,0.6501658064537914,0.015858707104350386
10.3,0.9378378040224126,0.6501240224782722,0.01582148303222064
10.350000000000001,0.9378352162393557,0.6500821657545133,0.015784226910992856
10.4,0.9378333751537752,0.6500402502867231,0.01574693810153315
10.450000000000001,0.9378322814684202,0.6499982900978066,0.01570961602386625
10.5,0.9378319356449958,0.6499562992247272,0.01567226015768723
10.55,0.9378323379041965,0.6499142917138707,0.0156348700428544
10.600000000000001,0.937833488225819,0.6498722816164153,0.015597445279862631
10.65,0.9378353863489514,0.6498302829837076,0.015559985530296255
10.700000000000001,0.9378380317722388,0.6497883098626475,0.015522490517260725
10.75,0.9378414237542265,0.649746376291082,0.0154849600257923
10.8,0.9378455613137773,0.6497044962932117,0.015447393903244887
10.850000000000001,0.9378504432305654,0.6496626838750088,0.015409792059653352
10.9,0.9378560680456445,0.6496209530196511,0.015372154468072483
10.950000000000001,0.9378624340620899,0.64957931768297,0.015334481164890905
11,0.937869539345714,0.6495377917889187,0.015296772250119196
11.05,0.9378773817258559,0.6494963892250569,0.015259027887651516
11.100000000000001,0.9378859587962409,0.6494551238380571,0.01522124830550003
11.15,0.9378952679159148,0.6494140094292326,0.015183433796001483
11.200000000000001,0.937905306210246,0.6493730597500876,0.01514558471599525
11.25,0.9379160705720009,0.649332288497894,0.015107701486972241
11.3,0.9379275576624856,0.6492917093112927,0.015069784595194074
11.350000000000001,0.9379397639127605,0.6492513357659216,0.015031834591781838
11.4,0.937952685524919,0.6492111813700736,0.014993852092774039
11.450000000000001,0.9379663184734371,0.6491712595603835,0.014955837779153016
11.5,0.9379806585065873,0.6491315836975459,0.014917792396839425
11.55,0.9379957011479197,0.6490921670620663,0.014879716756654284
11.600000000000001,0.9380114416978078,0.6490530228500447,0.014841611734248052
11.65,0.9380278752350594,0.6490141641689948,0.014803478269996421
11.700000000000001,0.9380449966185898,0.6489756040336974,0.014765317368862281
11.75,0.9380628004891592,0.6489373553620933,0.014727130100223581
11.8,0.9380812812711719,0.6488994309712123,0.014688917597666695
11.850000000000001,0.9381004331745354,0.6488618435731418,0.014650681058744966
11.9,0.9381202501965817,0.6488246057710366,0.01461242174470216
11.950000000000001,0.9381407261240476,0.6487877300551682,0.014574140980160551
12,0.9381618545351125,0.6487512287990185,0.014535840152773425
12.05,0.9381836288014962,0.6487151142554148,0.014497520712841789
12.100000000000001,0.9382060420906122,0.6486793985527107,0.014459184172895143
12.15,0.938229087367778,0.6486440936910111,0.014420832107236164
12.200000000000001,0.9382527573984805,0.6486092115384438,0.014382466151449223
12.25,0.9382770447506957,0.6485747638274777,0.014344088001872639
12.3,0.9383019417972632,0.6485407621512901,0.014305699415034678
12.350000000000001,0.9383274407183119,0.6485072179601802,0.01426730220705328
12.4,0.9383535335037387,0.648474142558036,0.014228898252999517
12.450000000000001,0.9383802119557381,0.6484415470988477,0.01419048948622493
12.5,0.9384074676913823,0.6484094425832749,0.014152077897652748
12.55,0.93843529214525,0.6483778398552645,0.014113665535033244
12.600000000000001,0.9384636765721044,0.6483467495987223,0.014075254502163272
12.65,0.9384926120496186,0.6483161823342364,0.014036846958070302
12.700000000000001,0.9385220894811478,0.6482861484158569,0.013998445116161124
12.75,0.9385520995985469,0.6482566580279282,0.013960051243335532
12.8,0.9385826329650347,0.6482277211819792,0.01392166765906526
12.850000000000001,0.9386136799781006,0.6481993477136673,0.013883296734438546
12.9,0.9386452308724553,0.6481715472797805,0.013844940891170714
12.950000000000001,0.9386772757230244,0.6481443293552971,0.013806602600581079
13,0.938709804447983,0.6481177032305018,0.013768284382536793
13.05,0.9387428068118316,0.6480916780081629,0.01372998880436391
13.100000000000001,0.9387762724285115,0.6480662626007662,0.013691718479726346
13.15,0.9388101907645591,0.6480414657278095,0.013653476067473145
13.200000000000001,0.9388445511422994,0.6480172959131585,0.013615264270454695
13.25,0.9388793427430752,0.6479937614824605,0.013577085834308479
13.3,0.938914554610515,0.6479708705606225,0.013538943546214972
13.350000000000001,0.9389501756538342,0.6479486310693487,0.013500840233624366
13.4,0.9389861946511728,0.6479270507247414,0.013462778762954796
13.450000000000001,0.9390226002529665,0.647906137034963,0.013424762038262822
13.5,0.9390593809853508,0.6478858972979633,0.01338679299988686
13.55,0.9390965252535973,0.6478663385992679,0.013348874623064378
13.600000000000001,0.9391340213455821,0.6478474678098318,0.013311009916523658
13.65,0.9391718574352841,0.6478292915839564,0.01327320192105093
13.700000000000001,0.9392100215863135,0.6478118163572721,0.01323545370803374
13.75,0.939248501755469,0.6477950483447849,0.013197768377981449
13.8,0.9392872857963228,0.6477789935389878,0.013160149059023733
13.850000000000001,0.9393263614628339,0.64776365770804,0.013122598905388057
13.9,0.9393657164129869,0.6477490463940094,0.013085121095857003
13.950000000000001,0.9394053382124568,0.6477351649111832,0.013047718832206474
14,0.9394452143382979,0.6477220183444441,0.013010395337625769
14.05,0.9394853321826584,0.6477096115477134,0.012973153855120476
14.100000000000001,0.9395256790565162,0.647697949142462,0.012935997645899294
14.15,0.9395662421934379,0.6476870355162874,0.012898929987745751
14.200000000000001,0.9396070087533589,0.6476768748215591,0.012861954173375944
14.25,0.9396479658263855,0.6476674709741322,0.012825073508783327
14.3,0.9396891004366142,0.6476588276521279,0.012788291311571694
14.350000000000001,0.939730399545973,0.6476509482947836,0.012751610909277398
14.4,0.9397718500580783,0.64764383610137,0.012715035637681981
14.450000000000001,0.9398134388221105,0.6476374940301785,0.012678568839116309
14.5,0.9398551526367065,0.6476319247975758,0.012642213860757399
14.55,0.9398969782538664,0.647627130877129,0.012605974052918986
14.600000000000001,0.9399389023828764,0.6476231144987983,0.012569852767337167
