time,e,omega,d
0,0.942,0.648316538100394,0.02633076200788132
0.05,0.9420238375158551,0.6483591355909321,0.026244531771394415
0.1,0.942046981738634,0.6484023831214946,0.02615884257547941
0.15000000000000002,0.9420694210395981,0.6484462726826191,0.026073694827836422
0.2,0.9420911453484575,0.6484907971401142,0.025989088830364333
0.25,0.9421121413639343,0.6485359468299273,0.025905024922786995
0.30000000000000004,0.9421323983433667,0.6485817135899485,0.025821503296081568
0.35000000000000003,0.9421519051956643,0.6486280887773764,0.025738524091299807
0.4,0.9421706509730639,0.6486750635973167,0.025656087381651076
0.45,0.9421886248720851,0.6487226291060515,0.02557419317271904
0.5,0.9422058162366804,0.648770776213895,0.025492841402152588
0.55,0.9422222145608943,0.6488194956879428,0.025412031939506332
0.6000000000000001,0.9422378094818861,0.6488687781635334,0.02533176459038636
0.65,0.9422525908132681,0.6489186141186852,0.0252520390826222
0.7000000000000001,0.9422665485141536,0.6489689939084469,0.025172855081331692
0.75,0.9422796727040762,0.6490199077556302,0.025094212183266844
0.8,0.942291953666586,0.6490713457526663,0.025016109916361936
0.8500000000000001,0.9423033818506792,0.6491232978653158,0.024938547740264556
0.9,0.9423139478732132,0.6491757539354069,0.02486152504643788
0.9500000000000001,0.9423236425212905,0.6492287036835592,0.02478504115829765
1,0.9423324567546035,0.649282136711887,0.0247090953313853
1.05,0.9423403817077396,0.6493360425066842,0.024633686753576613
1.1,0.9423474086924488,0.6493904104410858,0.02455881454532535
1.1500000000000001,0.9423535291998719,0.6494452297777025,0.02448447775994121
1.2000000000000002,0.942358734902731,0.6495004896712274,0.024410675383901487
1.25,0.9423630176574821,0.6495561791710085,0.02433740633719577
1.3,0.9423663695064297,0.649612287223587,0.02426466947370296
1.35,0.9423687826798043,0.6496688026751958,0.024192463581599977
1.4000000000000001,0.9423702495978038,0.6497257142742161,0.024120787383801287
1.4500000000000002,0.9423707628725976,0.6497830106735882,0.024049639538428622
1.5,0.942370315310295,0.6498406804331738,0.02397901863930994
1.55,0.9423688999128799,0.6498987120220655,0.023908923216507005
1.6,0.9423665098801088,0.6499570938208413,0.02383935173687059
1.6500000000000001,0.942363138611377,0.6500158141237588,0.02377030260462254
1.7000000000000002,0.9423587797075504,0.6500748611408879,0.023701774161963757
1.75,0.9423534269727658,0.6501342230001762,0.02363376468970734
1.8,0.9423470744161998,0.6501938877494461,0.023566272407935792
1.85,0.9423397162538073,0.6502538433583169,0.02349929547668151
1.9000000000000001,0.9423313469100312,0.6503140777200515,0.023432831996629554
1.9500000000000002,0.9423219610194823,0.6503745786533213,0.023366880009841773
2,0.9423115534285949,0.6504353339038891,0.023301437500501274
2.0500000000000003,0.9423001191972528,0.6504963311462014,0.023236502395676265
2.1,0.9422876536003947,0.6505575579848919,0.023172072566102344
2.15,0.9422741521295928,0.6506190019561884,0.023108145826982104
2.2,0.9422596104946123,0.6506806505292221,0.023044719938801177
2.25,0.9422440246249485,0.6507424911072334,0.022981792608159572
2.3000000000000003,0.9422273906713464,0.6508045110286731,0.02291936148861736
2.35,0.942209705007302,0.6508666975681929,0.02285742418155364
2.4000000000000004,0.942190964230549,0.6509290379375232,0.022795978237037745
2.45,0.942171165164531,0.650991519286233,0.02273502115471162
2.5,0.9421503048598618,0.6510541287023707,0.02267455038468236
2.5500000000000003,0.9421283805957759,0.6511168532129796,0.02261456332842383
2.6,0.9421053898815698,0.6511796797844864,0.022555057339686293
2.6500000000000004,0.9420813304580387,0.6512425953229577,0.02249602972541303
2.7,0.9420562002989076,0.6513055866742211,0.022437477746662843
2.75,0.942029997612261,0.6513686406238502,0.022379398619537454
2.8000000000000003,0.9420027208419735,0.6514317438970058,0.022321789516112637
2.85,0.9419743686691406,0.6514948831581315,0.02226464756537212
2.9000000000000004,0.9419449400135179,0.6515580450105024,0.02220796985414318
2.95,0.9419144340349643,0.6516212159956211,0.02215175342803285
3,0.9418828501348967,0.6516843825924576,0.022095995292363706
3.0500000000000003,0.9418501879577563,0.651747531216533,0.02204069241310822
3.1,0.9418164473924904,0.6518106482188392,0.021985841717820594
3.1500000000000004,0.94178162857405,0.6518737198845962,0.021931440096565114
3.2,0.9417457318849103,0.651936732431841,0.021877484402839868
3.25,0.9417087579566116,0.6519996720098468,0.021823971454494964
3.3000000000000003,0.9416707076713274,0.6520625246973689,0.021770898034644142
3.35,0.941631582163461,0.6521252765007154,0.021718260892568772
3.4000000000000004,0.9415913828212727,0.6521879133516403,0.021666056744613263
3.45,0.9415501112885432,0.6522504211050554,0.021614282275070933
3.5,0.9415077694662728,0.6523127855365615,0.021562934137059224
3.5500000000000003,0.9414643595144231,0.6523749923397935,0.02151200895338346
3.6,0.9414198838536999,0.6524370271235811,0.02146150331738804
3.6500000000000004,0.9413743451673855,0.6524988754089205,0.021411413793794166
3.7,0.9413277464032193,0.6525605226257581,0.02136173691952317
3.75,0.9412800907753318,0.652621954109584,0.021312469204504414
3.8000000000000003,0.9412313817662359,0.652683155097834,0.02126360713246695
3.85,0.9411816231288761,0.6527441107261013,0.021215147161713913
3.9000000000000004,0.941130818888742,0.6528048060241546,0.021167085725878762
3.95,0.9410789733460463,0.6528652259117671,0.02111941923466243
4,0.9410260910779743,0.6529253551943521,0.02107214407455054
4.05,0.940972176941003,0.6529851785584095,0.02102525660950972
4.1000000000000005,0.9409172360732976,0.6530446805667828,0.020978753181662146
4.15,0.9408612738971862,0.6531038456537284,0.020932630111937422
4.2,0.940804296121717,0.6531626581198,0.020886883700700947
4.25,0.9407463087452995,0.6532211021265504,0.020841510228357833
4.3,0.9406873180584342,0.6532791616910537,0.02079650595593155
4.3500000000000005,0.9406273306465333,0.6533368206802515,0.020751867125616386
4.4,0.9405663533928352,0.653394062805129,0.02070758996130294
4.45,0.940504393481416,0.6534508716147247,0.020663670669075637
4.5,0.9404414584002992,0.6535072304899794,0.020620105437681568
4.55,0.9403775559446688,0.6535631226374323,0.020576890438969667
4.6000000000000005,0.9403126942201852,0.6536185310827719,0.020534021828299446
4.65,0.9402468816464089,0.6536734386642477,0.020491495744918375
4.7,0.9401801269603326,0.6537278280259544,0.020449308312307075
4.75,0.9401124392200233,0.6537816816109996,0.020407455638491466
4.800000000000001,0.9400438278083776,0.6538349816545622,0.020365933816320975
4.8500000000000005,0.9399743024368619,0.6538877101770897,0.020324738923704663
4.9,0.9399038731498536,0.6539398489765325,0.020283867023841457
4.95,0.9398325503284728,0.6539913796216663,0.020243314165372183
5,0.9397603446947433,0.6540422834449569,0.02020307638251101
5.050000000000001,0.9396872673160518,0.6540925415350712,0.02016314969514967
5.1000000000000005,0.9396133296095729,0.6541421347296564,0.02012353010891164
5.15,0.9395385433468325,0.6541910436080856,0.02008421361516817
5.2,0.9394629206583911,0.6542392484842294,0.02004519619101348
5.25,0.9393864740386422,0.654286729399284,0.020006473799198028
5.300000000000001,0.9393092163507233,0.6543334661146804,0.01996804238801901
5.3500000000000005,0.9392311608315372,0.6543794381051055,0.01992989789116708
5.4,0.9391523210968831,0.654424624551664,0.01989203622752837
5.45,0.9390727111466896,0.6544690043352124,0.019854453300940916
5.5,0.938992345370351,0.6545125560299015,0.019817144999904522
5.550000000000001,0.9389112385521576,0.6545552578969618,0.01978010719724309
5.6000000000000005,0.9388294058768173,0.6545970878787717,0.01974333574971855
5.65,0.9387468629350627,0.6546380235932509,0.01970682649759532
5.7,0.9386636257293343,0.6546780423286193,0.019670575264154465
5.75,0.9385797106795347,0.6547171210385719,0.019634577855156536
5.800000000000001,0.9384951346288442,0.654755236337915,0.019598830058252192
5.8500000000000005,0.9384099148495876,0.654792364498715,0.01956332764233962
5.9,0.9383240690491432,0.6548284814470167,0.019528066356867876
5.95,0.938237615375881,0.6548635627601829,0.019493041931085225
6,0.9381505724251186,0.6548975836649182,0.019458250073231625
6.050000000000001,0.9380629592451238,0.6549305190360457,0.01942368646966683
6.1000000000000005,0.9379747953430368,0.6549623433960494,0.019389346783955343
6.15,0.9378861006906207,0.6549930309155878,0.01935522665590846
6.2,0.9377968957303741,0.6550225554148205,0.019321321700511918
6.25,0.9377072013812735,0.6550508903658335,0.019287627506836883
6.300000000000001,0.9376170390444937,0.6550780088961344,0.019254139636881804
6.3500000000000005,0.9375264306090355,0.6551038837933039,0.019220853624351872
6.4,0.9374353984572265,0.6551284875108861,0.019187764973376938
6.45,0.9373439654700716,0.6551517921755938,0.019154869157167593
6.5,0.9372521550324289,0.6551737695959063,0.019122161616609026
6.550000000000001,0.9371599910523123,0.6551943912639387,0.019089637757804007
6.6000000000000005,0.9370674979300601,0.6552136283880012,0.01905729295295889
6.65,0.9369747005839592,0.6552314518930685,0.019025122537376163
6.7,0.9368816244615175,0.6552478324314462,0.018993121807334132
6.75,0.9367882955033412,0.6552627404192937,0.01896128602136938
6.800000000000001,0.9366947402525478,0.6552761460042638,0.018929610390416404
6.8500000000000005,0.9366009857416506,0.6552880191437156,0.018898090084748624
6.9,0.936507059538499,0.6552983296050763,0.018866720228849512
6.95,0.9364129897522134,0.6553070469889414,0.01883549589917926
7,0.9363188050313193,0.6553141407576268,0.01880441212242982
7.050000000000001,0.9362245345649106,0.6553195802642036,0.018773463873463302
7.1000000000000005,0.936130208083249,0.655323334783778,0.01874264607319581
7.15,0.9360358558577359,0.6553253735470752,0.018711953586432097
7.2,0.9359415087002194,0.6553256657763646,0.018681381219654077
7.25,0.935847197961593,0.6553241807237573,0.018650923718766466
7.300000000000001,0.9357529555296413,0.6553208877118973,0.01862057576680326
7.3500000000000005,0.9356588138260965,0.6553157561770533,0.0185903319815994
7.4,0.935564805802855,0.6553087557146122,0.01856018691343219
7.45,0.9354709649373198,0.6552998561269578,0.01853013504263767
7.5,0.9353773252268228,0.6552890274737103,0.018500170777207656
7.550000000000001,0.9352839211820878,0.655276240124281,0.018470288450373545
7.6000000000000005,0.935190787819695,0.6552614648126902,0.018440482318183737
7.65,0.9350979606535099,0.6552446726945733,0.018410746557081862
7.7,0.9350054756850388,0.6552258354062871,0.018381075261493733
7.75,0.9349133693930524,0.6552049251239912,0.01835146244150726
7.800000000000001,0.9348216787207051,0.6551819146322808,0.01832190202027963
7.8500000000000005,0.934730441063172,0.6551567773845854,0.01829238783188612
7.9,0.9346396942535884,0.6551294875686162,0.01826291361905548
7.95,0.9345494765472457,0.6551000201760173,0.0182334730308592
8,0.934459826604957,0.65506835107083,0.018204059620567384
8.05,0.9343707834751266,0.6550344570592853,0.018174666843567423
8.1,0.9342823865745415,0.6549983159604295,0.018145288055373854
8.15,0.9341946756679008,0.6549599066772617,0.018115916509743212
8.200000000000001,0.9341076908460774,0.6549192092681257,0.01808654535690772
8.25,0.9340214725031186,0.6548762050180797,0.01805716764194165
8.3,0.9339360613119942,0.6548308765099555,0.018027776303274484
8.35,0.9338514981991077,0.6547832076948078,0.017998364171365487
8.4,0.9337678243175901,0.6547331839614453,0.01796892396755445
8.450000000000001,0.9336850810194051,0.6546807922047234,0.017939448303103622
8.5,0.9336033098262982,0.654626020892281,0.017909929678445954
8.55,0.9335225523996261,0.65456886012939,0.017880360482654796
8.6,0.9334428505091144,0.6545093017215957,0.01785073299315026
8.65,0.9333642460005916,0.6544473392348213,0.017821039375657162
8.700000000000001,0.9332867807627592,0.6543829680526164,0.017791271684429417
8.75,0.9332104966930551,0.6543161854302361,0.017761421862755346
8.8,0.9331354356626846,0.6542469905452495,0.017731481743757885
8.85,0.9330616394808854,0.6541753845443864,0.017701443051503375
8.9,0.9329891498585097,0.6541013705863464,0.017671297402431736
8.950000000000001,0.932918008371003,0.6540249538803159,0.017641036307120328
9,0.9328482564208677,0.653946141719955,0.017610651172392803
9.05,0.9327799351996996,0.6538649435126428,0.017580133303783503
9.1,0.9327130856498952,0.6537813708037923,0.017549473908366777
9.15,0.9326477484261209,0.6536954372960742,0.017518664097959623
9.200000000000001,0.9325839638566464,0.6536071588634179,0.01748769489270479
9.25,0.9325217719043598,0.6535165535596265,0.017456557225077902
9.3,0.9324612121283032,0.6534236416218827,0.01742524194421034
9.35,0.9324023236462975,0.6533284454681406,0.017393739820546542
9.4,0.9323451450952064,0.6532309896899876,0.017362041551142987
9.450000000000001,0.9322897145935608,0.6531313010394897,0.017330137765169035
9.5,0.9322360697042495,0.653029408410811,0.017298019029841228
9.55,0.9321842473977053,0.6529253428165853,0.017265675856755803
9.600000000000001,0.9321342840157458,0.6528191373591433,0.017233098708608636
9.65,0.9320862152361619,0.6527108271967483,0.017200278006296567
9.700000000000001,0.9320400760381394,0.6526004495050168,0.017167204136392607
9.75,0.9319959006685977,0.6524880434337277,0.017133867458985992
9.8,0.9319537226095217,0.6523736500592516,0.017100258315876495
9.850000000000001,0.9319135745463631,0.652257312332847,0.017066367039111234
9.9,0.9318754883375758,0.6521390750250954,0.017032183959850497
9.950000000000001,0.9318394949853486,0.6520189846667608,0.016997699417548046
10,0.9318056246075914,0.6518970894863712,0.016962903769430073
10.05,0.9317739064112243,0.6517734393448363,0.01692778740025577
10.100000000000001,0.9317443686668123,0.6516480856674188,0.01689234073234149
10.15,0.9317170386845852,0.6515210813733835,0.016856554235829456
10.200000000000001,0.9316919427918697,0.6513924808036518,0.016820418439181212
10.25,0.9316691063126222,0.6512623396492274,0.016783923939528368
10.3,0.9316485535458013,0.6511307148689893,0.016747061414546634
10.350000000000001,0.9316303077487711,0.6509976646185414,0.016709821632712507
10.4,0.9316143911207981,0.650863248174134,0.016672195464358566
10.450000000000001,0.9316008247870803,0.6507275258527631,0.016634173893320038
10.5,0.9315896287851284,0.6505905589350559,0.01659574802824531
10.55,0.9315808220524594,0.6504524095879098,0.01655690911404518
10.600000000000001,0.9315744224157165,0.6503131407874699,0.016517648543398572
10.65,0.9315704465812096,0.6501728162427848,0.0164779578682831
10.700000000000001,0.9315689101268534,0.650031500320371,0.01643782881150699
10.75,0.9315698274954746,0.6498892579699009,0.01639725327821979
10.8,0.9315732119894551,0.6497461546512117,0.016356223367379658
10.850000000000001,0.9315790757666772,0.6496022562628128,0.016314731383155274
10.9,0.9315874298377295,0.6494576290720543,0.016272769846241035
10.950000000000001,0.9315982840643361,0.6493123396470956,0.01623033150506449
11,0.9316116471589618,0.6491664547907994,0.01618740934686576
11.05,0.9316275266855525,0.6490200414766573,0.01614399660862903
11.100000000000001,0.9316459290613598,0.6488731667868334,0.016100086787847155
11.15,0.9316668595598072,0.6487258978524,0.016055673653100816
11.200000000000001,0.9316903223143446,0.648578301795819,0.016010751254434543
11.25,0.9317163203232454,0.6484304456757105,0.01596531393351258
11.3,0.9317448554552956,0.648282396433934,0.015919356333538363
11.350000000000001,0.9317759284563267,0.6481342208449961,0.015872873408922024
11.4,0.9318095389565417,0.6479859854677813,0.015825860434681344
11.450000000000001,0.9318456854785876,0.6478377565996011,0.015778313015561995
11.5,0.9318843654463258,0.6476896002325317,0.01573022709486404
11.55,0.9319255751942529,0.6475415820120156,0.01568159896296217
11.600000000000001,0.9319693099775276,0.6473937671976834,0.015632425265507996
11.65,0.9320155639825569,0.6472462206263512,0.015582703011303559
11.700000000000001,0.9320643303381003,0.6470990066771382,0.015532429579835727
11.75,0.9321156011269434,0.6469521892384532,0.015481602728506098
11.8,0.9321693673978381,0.6468058316772168,0.015430220599443555
11.850000000000001,0.9322256191775958,0.6466599968109856,0.015378281725750457
11.9,0.9322843454842928,0.646514746879578,0.015325785037888008
11.950000000000001,0.9323455343402285,0.6463701435202377,0.015272729869294411
12,0.9324091727852795,0.6462262477441534,0.015219115961698141
12.05,0.9324752468905281,0.646083119914555,0.015164943470052527
12.100000000000001,0.9325437417721165,0.6459408197263675,0.015110212967074346
12.15,0.9326146416052946,0.6457994061873449,0.015054925447382177
12.200000000000001,0.9326879296386359,0.6456589376006099,0.014999082331230772
12.25,0.9327635882083947,0.6455194715485219,0.014942685467838206
12.3,0.9328415987529807,0.6453810648778009,0.014885737138303145
12.350000000000001,0.9329219418275284,0.6452437736858343,0.014828240058110053
12.4,0.9330045971185388,0.6451076533080952,0.014770197379220652
12.450000000000001,0.9330895434585763,0.6449727583066039,0.014711612691750416
12.5,0.9331767588409994,0.644839142459368,0.014652490025229371
12.55,0.9332662204347109,0.6447068587507327,0.014592833849446877
12.600000000000001,0.9333579045989112,0.6445759593625854,0.014532649074880504
12.65,0.9334517868978397,0.6444464956663506,0.014471941052709629
12.700000000000001,0.9335478421154916,0.6443185182157234,0.014410715574414552
12.75,0.9336460442702995,0.6441920767400837,0.014348978870962648
12.8,0.9337463666297675,0.644067220138545,0.014286737611583143
12.850000000000001,0.9338487817250479,0.643943996474585,0.014223998902132695
12.9,0.9339532613654535,0.6438224529712174,0.014160770283054205
12.950000000000001,0.9340597766528957,0.643702636006658,0.014097059726931687
13,0.9341682979962435,0.6435845911104486,0.014032875635644367
13.05,0.9342787951255945,0.6434683629599991,0.013968226837123454
13.100000000000001,0.934391237106457,0.6433539953775131,0.013903122581715523
13.15,0.9345055923538336,0.6432415313272656,0.013837572538156503
13.200000000000001,0.9346218286462059,0.6431310129132013,0.013771586789160852
13.25,0.934739913139417,0.6430224813768265,0.013705175826630642
13.3,0.9348598123804457,0.6429159770953679,0.013638350546489621
13.350000000000001,0.9349814923210763,0.6428115395801752,0.013571122243147611
13.4,0.9351049183314565,0.642709207475346,0.013503502603600892
13.450000000000001,0.9352300552135453,0.6426090185565512,0.013435503701174521
13.5,0.9353568672144512,0.6425110097300463,0.013367137988912776
13.55,0.9354853180396581,0.642415217031848,0.013298418292624178
13.600000000000001,0.9356153708661397,0.6423216756270645,0.013229357803587914
13.65,0.935746988355365,0.6422304198093646,0.013159970070928551
13.700000000000001,0.9358801326661921,0.6421414830005732,0.013090268993666375
13.75,0.9360147654676552,0.6420548977503849,0.01302026881245083
13.8,0.9361508479516428,0.6419706957361834,0.012949984100984769
13.850000000000001,0.9362883408454719,0.64188890776296,0.012879429757147539
13.9,0.9364272044243559,0.6418095637633247,0.012808620993825086
13.950000000000001,0.9365673985237744,0.641732692797602,0.012737573329455455
14,0.9367088825517392,0.6416583230540094,0.012666302578298455
14.05,0.9368516155009665,0.641586481848909,0.012594824840438213
14.100000000000001,0.9369955559609521,0.6415171956271357,0.012523156491527748
14.15,0.9371406621299554,0.6414504899623932,0.012451314172284825
14.200000000000001,0.9372868918268936,0.6413863895577206,0.012379314777748495
14.25,0.9374342025027658,0.6413249182460039,0.01230717544666528
14.3,0.9375825512534667,0.6412660989906245,0.012234913549279438
14.350000000000001,0.9377318948305846,0.6412099538861017,0.01216254667671667
14.4,0.9378821896528096,0.6411565041588098,0.01209009262952251
14.450000000000001,0.9380333918178132,0.6411057701677965,0.012017569405512135
14.5,0.9381854571135833,0.6410577714056552,0.011944995187876572
14.55,0.9383383410297589,0.6410125264994682,0.01187238833305534
14.600000000000001,0.9384919987689129,0.640970053211826,0.011799767358440065
