time,e,omega,d
0,0.942,0.6482848842903546,0.02633076200788132
0.05,0.9420218617048267,0.6483575891941281,0.02624508465083892
0.1,0.9420425165874664,0.6484311307389699,0.026160087006532
0.15000000000000002,0.9420619495570386,0.6485054671851861,0.026075768682976203
0.2,0.9420801479770814,0.6485805615722994,0.025992129132563015
0.25,0.9420970956783201,0.6486563641185121,0.02590916738926988
0.30000000000000004,0.9421127803641471,0.6487328332299652,0.025826882327799828
0.35000000000000003,0.9421271898332962,0.6488099251099261,0.025745272564470095
0.4,0.9421403126382912,0.6488875955132636,0.025664336471958375
0.45,0.9421521380890727,0.6489657997656249,0.025584072183310054
0.5,0.9421626562628973,0.6490444927907004,0.02550447759465656
0.55,0.942171858012736,0.649123629135256,0.025425550368373028
0.6000000000000001,0.9421797349753455,0.6492031629945992,0.025347287936428393
0.65,0.942186279578918,0.6492830482382895,0.025269687503937457
0.7000000000000001,0.942191485050301,0.6493632384360767,0.02519274605290552
0.75,0.9421953454217814,0.6494436868840581,0.025116460346156454
0.8,0.9421978555374235,0.6495243466310394,0.02504082693143481
0.8500000000000001,0.9421990110589553,0.6496051705050847,0.02496584214567213
0.9,0.9421988084711952,0.6496861111402449,0.024891502119407688
0.9500000000000001,0.9421972450870106,0.6497671210034494,0.02481780278135356
1,0.9421943190518043,0.6498481524215487,0.024744739863093772
1.05,0.9421900293475184,0.6499291576084939,0.024672308903907106
1.1,0.942184375796152,0.6500100886926409,0.024600505255703238
1.1500000000000001,0.9421773590627855,0.6500908977441656,0.02452932408806147
1.2000000000000002,0.9421689806581056,0.6501715368025776,0.024458760393361575
1.25,0.9421592429404237,0.6502519579043191,0.02438880899199601
1.3,0.942148149117186,0.6503321131104371,0.02431946453765287
1.35,0.942135703245966,0.6504119545343159,0.024250721522658922
1.4000000000000001,0.9421219102349374,0.6504914343694569,0.024182574283372102
1.4500000000000002,0.9421067758428212,0.6505705049172956,0.02411501700561293
1.5,0.9420903066783034,0.6506491186150422,0.024048043730124383
1.55,0.9420725101989191,0.6507272280635334,0.02398164835804985
1.6,0.9420533947093999,0.6508047860550868,0.02391582465641904
1.6500000000000001,0.9420329693594793,0.6508817456013426,0.023850566263631672
1.7000000000000002,0.9420112441411568,0.650958059961085,0.023785866694929197
1.75,0.9419882298854126,0.6510336826680302,0.023721719347844797
1.8,0.9419639382583768,0.6511085675585702,0.023658117507622294
1.85,0.9419383817569444,0.6511826687994633,0.02359505435259477
1.9000000000000001,0.9419115737038414,0.6512559409154597,0.02353252295951398
1.9500000000000002,0.9418835282421333,0.6513283388168507,0.023470516308821916
2,0.9418542603291812,0.6513998178269346,0.023409027289856315
2.0500000000000003,0.9418237857300417,0.6514703337093856,0.023348048705981967
2.1,0.9417921210103095,0.6515398426955172,0.02328757327964039
2.15,0.9417592835284065,0.6516083015114319,0.023227593657310443
2.2,0.9417252914273128,0.6516756674050416,0.0231681024143731
2.25,0.9416901636257444,0.6517418981729561,0.023109092059873857
2.3000000000000003,0.9416539198087772,0.6518069521872238,0.023050555041176715
2.35,0.9416165804179184,0.6518707884219158,0.022992483748504107
2.4000000000000004,0.941578166640628,0.6519333664795449,0.022934870519357515
2.45,0.9415387003992923,0.6519946466173064,0.022877707642814098
2.5,0.9414982043396527,0.6520545897731311,0.022820987363694915
2.5500000000000003,0.9414567018186915,0.6521131575915394,0.022764701886601055
2.6,0.9414142168919796,0.6521703124492843,0.0227088433798142
2.6500000000000004,0.9413707743004903,0.6522260174807718,0.02265340397905882
2.7,0.9413263994568818,0.6522802366032475,0.02259837579112359
2.75,0.9412811184312545,0.6523329345417332,0.022543750897340162
2.8000000000000003,0.9412349578967223,0.6523840768008411,0.022489521358195895
2.85,0.9411879452437886,0.652433629856456,0.022435679212025366
2.9000000000000004,0.9411401084194198,0.6524815609989074,0.02238221648346308
2.95,0.9410914759663884,0.6525278384227445,0.022329125184057386
3,0.9410420770103904,0.6525724312563009,0.022276397314982186
3.0500000000000003,0.9409919412533428,0.6526153096067263,0.022224024869680788
3.1,0.940941098917445,0.6526564445155256,0.022171999836744557
3.1500000000000004,0.9408895807504787,0.652695808020425,0.02212031420188591
3.2,0.9408374180148763,0.6527333731906368,0.022068959950041187
3.25,0.9407846424307491,0.652769114070023,0.022017929067379708
3.3000000000000003,0.9407312862547894,0.6528030059074178,0.02196721354349602
3.35,0.9406773821489426,0.652835024949556,0.021916805373353644
3.4000000000000004,0.9406229632032284,0.652865148545262,0.021866696558642425
3.45,0.940568062917701,0.6528933551725378,0.021816879109466215
3.5,0.940512715177904,0.652919624450971,0.021767345045769656
3.5500000000000003,0.9404569542332507,0.6529439371603375,0.021718086398682352
3.6,0.9404008146750477,0.6529662752587322,0.021669095211761646
3.6500000000000004,0.9403443314141721,0.6529866219001037,0.02162036354214
3.7,0.940287539658409,0.6530049614511624,0.02157188346158529
3.75,0.9402304748894653,0.6530212795076398,0.02152364705748064
3.8000000000000003,0.9401731728396748,0.6530355629098715,0.021475646433731375
3.85,0.9401156694684153,0.653047799757675,0.02142787371160658
3.9000000000000004,0.9400580009382492,0.6530579794244961,0.021380321030523303
3.95,0.94000020359081,0.6530660925707943,0.02133298054878146
4,0.9399423139224502,0.6530721311566402,0.021285844444257806
4.05,0.9398843685596707,0.6530760884534952,0.0212389049150675
4.1000000000000005,0.9398264042343507,0.6530779590551476,0.021192154180202014
4.15,0.9397684577587976,0.6530777388877744,0.02114558448015202
4.2,0.9397105660006387,0.6530754252191042,0.021099188077524332
4.25,0.9396527658575734,0.6530710166666523,0.021052957257661774
4.3,0.9395950942320094,0.6530645132050024,0.021006884329274954
4.3500000000000005,0.9395375880056032,0.6530559161721083,0.02096096162509503
4.4,0.9394802840137276,0.6530452282745938,0.020915181502556366
4.45,0.9394232190198899,0.6530324535920219,0.020869536344517974
4.5,0.9393664296901206,0.6530175975801159,0.020824018560032687
4.55,0.9393099525673593,0.6530006670729073,0.0207786205851726
4.6000000000000005,0.9392538240458598,0.6529816702837932,0.020733334883919458
4.65,0.9391980803456376,0.652960616805482,0.020688153949128214
4.7,0.939142757486984,0.6529375176088138,0.020643070303572045
4.75,0.9390878912650724,0.6529123850404365,0.020598076501076538
4.800000000000001,0.9390335172246781,0.6528852328193275,0.02055316512775077
4.8500000000000005,0.9389796706350391,0.6528560760321486,0.020508328803322536
4.9,0.9389263864648787,0.6528249311274236,0.02046356018258461
4.95,0.9388736993576174,0.6527918159085324,0.020418851956958674
5,0.9388216436067964,0.6527567495255177,0.02037419685618306
5.050000000000001,0.9387702531317357,0.6527197524656971,0.02032958765013001
5.1000000000000005,0.9387195614534537,0.6526808465430859,0.0202850171507578
5.15,0.938669601670869,0.6526400548866267,0.020240478214202506
5.2,0.9386204064373092,0.6525974019272334,0.02019596374301368
5.25,0.9385720079373483,0.6525529133836544,0.020151466688537758
5.300000000000001,0.9385244378639975,0.6525066162471639,0.02010698005345245
5.3500000000000005,0.9384777273962686,0.6524585387650919,0.020062496894454714
5.4,0.938431907177134,0.6524087104232071,0.020018010325104505
5.45,0.9383870072919036,0.6523571619269676,0.019973513518825675
5.5,0.9383430572301367,0.6523039252141919,0.019928999713952643
5.550000000000001,0.9383000859061188,0.6522490333517206,0.019884462212525583
5.6000000000000005,0.9382581216146941,0.6521925205635123,0.019839894386325704
5.65,0.9382171920034353,0.6521344222241636,0.01979528968139352
5.7,0.9381773241028732,0.6520747747493816,0.01975064161605802
5.75,0.9381385441754123,0.6520136157947258,0.0197059438003607
5.800000000000001,0.9381008778404182,0.651950983979315,0.019661189923613653
5.8500000000000005,0.9380643500043803,0.6518869189545119,0.01961637376455556
5.9,0.9380289848390724,0.651821461382853,0.0195714891963007
5.95,0.937994805769418,0.6517546529017983,0.019526530190383348
6,0.9379618354577216,0.6516865360940864,0.01948149082139271
6.050000000000001,0.9379300957884431,0.6516171544573449,0.019436365271750265
6.1000000000000005,0.9378996078535996,0.6515465523729582,0.019391147836606473
6.15,0.9378703919388061,0.6514747750742139,0.01934583292884933
6.2,0.9378424675103808,0.6514018686148453,0.019300415084051663
6.25,0.9378158532014517,0.6513278798328576,0.019254888966155452
6.300000000000001,0.9377905668009491,0.6512528563190564,0.019209249372394613
6.3500000000000005,0.9377666252424225,0.6511768463831763,0.019163491238609963
6.4,0.9377440445929301,0.6510998990180028,0.01911760964485944
6.45,0.937722840043154,0.6510220638642878,0.019071599820881854
6.5,0.9377030258981058,0.6509433911750593,0.01902545715164011
6.550000000000001,0.9376846155685068,0.6508639317795071,0.01897917718290495
6.6000000000000005,0.937667621562848,0.6507837370465208,0.018932755626863605
6.65,0.9376520554801383,0.6507028588479251,0.018886188367741006
6.7,0.9376379280033368,0.6506213495214506,0.01883947146742164
6.75,0.9376252488934702,0.6505392618334813,0.018792601171059478
6.800000000000001,0.9376140269844332,0.6504566489416195,0.018745573912663408
6.8500000000000005,0.9376042701784696,0.6503735643571057,0.018698386320645306
6.9,0.9375959854423302,0.650290061907134,0.018651035223317642
6.95,0.9375891788041051,0.6502061956970979,0.018603517654327554
7,0.9375838553507246,0.6501220200728072,0.0185558308580141
7.050000000000001,0.9375800192261242,0.650037589582707,0.018507972294675247
7.1000000000000005,0.9375776736300672,0.6499529589401392,0.01845993964573144
7.15,0.937576820817619,0.6498681829856753,0.01841173081877222
7.2,0.9375774620992657,0.6497833166495582,0.01836334395247267
7.25,0.93757959784167,0.649698414914281,0.01831477742136646
7.300000000000001,0.9375832274690552,0.6496135327773352,0.018266029840462397
7.3500000000000005,0.9375883494652103,0.6495287252141592,0.018217100069691437
7.4,0.9375949613761058,0.6494440471413123,0.018167987218171526
7.45,0.93760305981311165,0.6493595533799065,0.0181186906482776
7.5,0.9376126404568086,0.6492752986193165,0.01806920997950448
7.550000000000001,0.9376236980613792,0.6491913373811992,0.01801954509211067
7.6000000000000005,0.9376362264595735,0.6491077239838405,0.017969696130531346
7.65,0.9376502185682336,0.649024512506859,0.01791966350654914
7.7,0.9376656663943708,0.6489417567562816,0.01786944790221183
7.75,0.9376825610417793,0.6488595102300182,0.0178190502724863
7.800000000000001,0.9377008927181807,0.6487778260837492,0.017768471847638644
7.8500000000000005,0.9377206507428834,0.6486967570972496,0.017717714135330766
7.9,0.9377418235549467,0.6486163556411636,0.017666778922424242
7.95,0.9377643987218406,0.6485366736442484,0.0176156682764828
8,0.9377883629485843,0.6484577625611021,0.017564384546965246
8.05,0.9378137020873568,0.6483796733403903,0.01751293036610118
8.1,0.9378404011475655,0.6483024563935856,0.017461308649442595
8.15,0.9378684443063596,0.6482261615642332,0.01740952259608477
8.200000000000001,0.9378978149195806,0.6481508380977533,0.017357575688550734
8.25,0.9379284955331332,0.648076534611794,0.01730547169233401
8.3,0.9379604678947695,0.6480032990671435,0.01725321465509507
8.35,0.9379937129662717,0.6479311787392106,0.01720080890550763
8.4,0.9380282109360227,0.6478602201900862,0.017148259051751373
8.450000000000001,0.9380639412319547,0.6477904692411898,0.017095569979648634
8.5,0.9381008825348621,0.6477219709465123,0.01704274685044302
8.55,0.9381390127920686,0.6476547695664603,0.0169897950982187
8.6,0.9381783092314382,0.64758890854231,0.01693672042695984
8.65,0.9382187483757182,0.6475244304712751,0.016883528807250317
8.700000000000001,0.9382603060572035,0.6474613770821962,0.016830226472614368
8.75,0.9383029574327125,0.6473997892118559,0.01677681991549989
8.8,0.9383466769988633,0.6473397067819237,0.016723315882906334
8.85,0.93839143860764,0.6472811687765362,0.016669721371660295
8.9,0.9384372154822405,0.6472242132205166,0.01661604362334211
8.950000000000001,0.9384839802331935,0.6471688771582359,0.01656229011886787
9,0.9385317048747375,0.6471151966331193,0.016508468572731638
9.05,0.9385803608414504,0.6470632066678021,0.016454586926913393
9.1,0.9386299190051216,0.6470129412449356,0.016400653344459
9.15,0.9386803496918575,0.6469644332886473,0.016346676202738945
9.200000000000001,0.9387316226994101,0.6469177146466567,0.016292664086393308
9.25,0.9387837073147223,0.646872816073048,0.016238625779971073
9.3,0.9388365723316784,0.6468297672117032,0.016184570260272403
9.35,0.9388901860690552,0.6467885965803942,0.01613050668840317
9.4,0.9389445163886607,0.6467493315555394,0.01607644440155148
9.450000000000001,0.9389995307136582,0.6467119983576216,0.016022392904496596
9.5,0.9390551960470613,0.6466766220372719,0.015968361860861154
9.55,0.939111478990399,0.6466432264620184,0.015914361084117992
9.600000000000001,0.9391683457625372,0.6466118343037007,0.015860400528363506
9.65,0.9392257622186532,0.6465824670265522,0.015806490278869854
9.700000000000001,0.9392836938693547,0.6465551448759501,0.01575264054242877
9.75,0.9393421058999358,0.6465298868678325,0.01569886163750018
9.8,0.9394009631897625,0.6465067107787862,0.015645163984179172
9.850000000000001,0.9394602303317832,0.6464856331368015,0.015591558093995303
9.9,0.9395198716521537,0.6464666692126982,0.015538054559558478
9.950000000000001,0.9395798512299738,0.6464498330122211,0.01548466404406599
10,0.9396401329171256,0.6464351372688046,0.015431397270685654
10.05,0.9397006803582089,0.6464225934370093,0.015378265011830069
10.100000000000001,0.9397614570105667,0.6464122116866277,0.015325278078337503
10.15,0.9398224261643939,0.6464040008974613,0.015272447308574832
10.200000000000001,0.9398835509629232,0.6463979686547683,0.015219783557478337
10.25,0.9399447944226813,0.6463941212453818,0.01516729768554822
10.3,0.9400061194538101,0.646392463654499,0.015115000547812866
10.350000000000001,0.9400674888804452,0.6463929995631408,0.01506290298277883
10.4,0.940128865461146,0.6463957313462818,0.01501101580138277
10.450000000000001,0.940190211909371,0.6464006600716516,0.014959349775961413
10.5,0.9402514909139915,0.6464077854992047,0.014907915629255725
10.55,0.9403126651598374,0.64641710608126135,0.014856724023465344
10.600000000000001,0.9403736973482694,0.6464286189633166,0.01480578554936939
10.65,0.9404345502177693,0.6464423199855203,0.014755110715529462
10.700000000000001,0.9404951865645433,0.6464582036848222,0.014704709937590757
10.75,0.9405555692631311,0.6464762632977885,0.014654593527696843
10.8,0.9406156612870133,0.6464964907640816,0.014604771684033645
10.850000000000001,0.9406754257292118,0.6465188767306085,0.014555254480517822
10.9,0.9407348258228742,0.6465434105563321,0.014506051856644537
10.950000000000001,0.9407938249618372,0.6465700803177482,0.014457173607509363
11,0.9408523867211598,0.6465988728150228,0.014408629374018746
11.05,0.9409104748776204,0.6466297735787916,0.01436042863330307
11.100000000000001,0.9409680534301693,0.6466627668776184,0.014312580689346118
11.15,0.9410250866203304,0.6466978357261101,0.01426509466384424
11.200000000000001,0.9410815389525421,0.6467349618936881,0.01421797948730815
11.25,0.9411373752144313,0.6467741259140112,0.014171243890419929
11.3,0.9411925604970128,0.6468153070950501,0.014124896395657153
11.350000000000001,0.9412470602148034,0.6468584835298083,0.014078945309195897
11.4,0.9413008401258449,0.6469036321076884,0.01403339871310349
11.450000000000001,0.9413538663516261,0.6469507285264987,0.013988264457831653
11.5,0.9414061053968957,0.6469997473050977,0.013943550155020013
11.55,0.9414575241693562,0.6470506617966723,0.013899263170619375
11.600000000000001,0.9415080899992312,0.647103444202645,0.013855410618343634
11.65,0.9415577706586956,0.6471580655872066,0.013811999353458507
11.700000000000001,0.9416065343811607,0.6472144958924666,0.013769035966914792
11.75,0.941654349880402,0.647272703954221,0.013726526779833013
11.8,0.9417011863695243,0.647332657518326,0.01368447783834593
11.850000000000001,0.9417470135797493,0.6473943232576772,0.013642894908804479
11.9,0.9417918017790199,0.6474576667897829,0.013601783473352233
11.950000000000001,0.9418355217904075,0.647522652694928,0.013561148725872624
12,0.9418781450103156,0.6475892445349202,0.013520995568312669
12.05,0.9419196434264653,0.6476574048724095,0.013481328607386017
12.100000000000001,0.9419599896356561,0.6477270952907762,0.013442152151657711
12.15,0.9419991568612877,0.647798276414575,0.013403470209012025
12.200000000000001,0.9420371189706341,0.647870907930529,0.013365286484504333
12.25,0.9420738504918598,0.6479449486090626,0.013327604378597074
12.3,0.9421093266307633,0.6480203563263645,0.013290426985779188
12.350000000000001,0.9421435232872417,0.6480970880869701,0.013253757093567808
12.4,0.9421764170714616,0.6481751000468522,0.01321759718189005
12.450000000000001,0.9422079853197266,0.6482543475370096,0.013181949422842369
12.5,0.9422382061100298,0.6483347850875412,0.01314681568082394
12.55,0.9422670582772805,0.6484163664521941,0.013112197513040035
12.600000000000001,0.9422945214281918,0.6484990446333734,0.013078096170370656
12.65,0.9423205759558209,0.6485827719076006,0.013044512598598923
12.700000000000001,0.9423452030537481,0.6486674998514067,0.013011447439993194
12.75,0.942368384729884,0.648753179367649,0.012978901035236202
12.8,0.9423901038198941,0.648839760712233,0.01294687342569386
12.850000000000001,0.9424103440002284,0.6489271935212313,0.012915364356015736
12.9,0.9424290898007472,0.6490154268383788,0.012884373277058795
12.950000000000001,0.9424463266169283,0.6491044091429343,0.012853899349125153
13,0.9424620407216472,0.6491940883778896,0.012823941445504332
13.05,0.9424762192765203,0.649284411978514,0.012794498156309791
13.100000000000001,0.9424888503427967,0.6493753269012159,0.012765567792599056
13.15,0.9424999228917916,0.649466779652708,0.012737148390766376
13.200000000000001,0.9425094268148486,0.6495587163194588,0.012709237717196219
13.25,0.9425173529328208,0.6496510825974149,0.012681833273165714
13.3,0.9425236930050628,0.6497438238219788,0.012654932299983549
13.350000000000001,0.9425284397379197,0.6498368849982253,0.012628531784352626
13.4,0.9425315867927074,0.6499302108313404,0.012602628463943324
13.450000000000001,0.942533128793172,0.6500237457572678,0.012577218833164011
13.5,0.9425330613324193,0.6501174339735465,0.012552299149115155
13.55,0.9425313809793072,0.6502112194703231,0.012527865437713028
13.600000000000001,0.9425280852842903,0.6503050460615252,0.012503913499969032
13.65,0.9425231727847092,0.6503988574161778,0.012480438918410258
13.700000000000001,0.9425166430095154,0.6504925970898506,0.01245743706362689
13.75,0.9425084964834246,0.6505862085562192,0.012434903100931904
13.8,0.9424987347304913,0.6506796352387265,0.01241283199711853
13.850000000000001,0.9424873602770956,0.6507728205423308,0.012391218527300744
13.9,0.9424743766543369,0.6508657078853247,0.012370057281822241
13.950000000000001,0.9424597883998266,0.6509582407312159,0.012349342673219209
14,0.9424436010588743,0.6510503626206509,0.012329068943222457
14.05,0.9424258211850607,0.6511420172033751,0.012309230169784373
14.100000000000001,0.9424064563401923,0.651233148270213,0.012289820274116462
14.15,0.9423855150936312,0.6513236997850602,0.012270833027723332
14.200000000000001,0.9423630070209971,0.6514136159168747,0.012252262059419159
14.25,0.9423389427022331,0.6515028410716563,0.012234100862313002
14.3,0.9423133337190364,0.6515913199244072,0.012216342800749451
14.350000000000001,0.9422861926516436,0.6516789974510605,0.012198981117191563
14.4,0.9422575330749723,0.6517658189603718,0.012182008939033206
14.450000000000001,0.9422273695541127,0.6518517301257624,0.012165419285328403
14.5,0.9421957176391662,0.6519366770171072,0.012149205073425606
14.55,0.9421625938594304,0.6520206061324608,0.012133359125495236
14.600000000000001,0.942128015716926,0.6521034644297128,0.012117874174939298
