time,e,omega,d
0,0.942,0.6482532304803152,0.02633076200788132
0.05,0.9420193548143431,0.6484174980965087,0.026245779302574348
0.1,0.9420359202419969,0.6485837134205046,0.026161903283560023
0.15000000000000002,0.9420496608542008,0.6487516421337477,0.02607913009427792
0.2,0.9420605488590602,0.6489210765594835,0.02599745527036128
0.25,0.9420685510504836,0.6490917368849891,0.02591687162286055
0.30000000000000004,0.9420736457449632,0.6492633893382134,0.025837371532331573
0.35000000000000003,0.9420758139067619,0.6494357880923182,0.025758946010101764
0.4,0.9420750407958405,0.6496086853418461,0.025681584880159203
0.45,0.9420713159856996,0.6497818315424541,0.02560527683328368
0.5,0.9420646334168502,0.6499549757770652,0.025530009473985572
0.55,0.9420549914370382,0.650127866091157,0.025455769370727754
0.6000000000000001,0.9420423928360653,0.6503002498337629,0.025382542107501446
0.65,0.9420268448743778,0.6504718740012733,0.025310312336614047
0.7000000000000001,0.9420083593052886,0.6506424855837664,0.025239063832397633
0.75,0.9419869523906769,0.6508118319135361,0.02516877954555287
0.8,0.9419626449100225,0.6509796610155013,0.025099441657843613
0.8500000000000001,0.941935462162635,0.651145721959194,0.02503103163686029
0.9,0.9419054339629512,0.6513097652120293,0.024963530290574555
0.9500000000000001,0.9418725946287804,0.6514715429935745,0.024896917821413744
1,0.9418369829623883,0.651630809630539,0.024831173879591127
1.05,0.9417986422243171,0.6517873219122196,0.024766277615437222
1.1,0.9417576200998529,0.651940839446138,0.0247022077304877
1.1500000000000001,0.9417139686580597,0.6520911250136161,0.024638942527095708
1.2000000000000002,0.9416677443033117,0.6522379449250343,0.024576459956349474
1.25,0.9416190077192655,0.6523810693745188,0.024514737664090798
1.3,0.9415678238052279,0.6525202727938002,0.02445375303484594
1.35,0.9415142616048833,0.6526553342049779,0.024393483233497142
1.4000000000000001,0.9414583942273648,0.652786037571911,0.024333905244541237
1.4500000000000002,0.9414002987606576,0.6529121721499445,0.024274995908800657
1.5,0.9413400561773432,0.6530335328336521,0.024216731957471854
1.55,0.9412777512327081,0.6531499205022586,0.02415909004341698
1.6,0.9412134723552513,0.6532611423623648,0.02410204676962555
1.6500000000000001,0.9411473115296465,0.6533670122875676,0.02404557871479484
1.7000000000000002,0.9410793641722272,0.6534673511545256,0.02398966245599972
1.75,0.9410097289990835,0.6535619871749719,0.023934274588445364
1.8,0.9409385076940278,0.6536507557335635,0.023879391739424057
1.85,0.9408658054009632,0.6537335012483548,0.02382499058923052
1.9000000000000001,0.9407917298465431,0.6538100758369121,0.023771047877671786
1.9500000000000002,0.9407163914628164,0.6538803402217263,0.02371754041234964
2,0.9406399032362662,0.6539441640870234,0.02366444507583984
2.0500000000000003,0.9405623805144556,0.6540014263260627,0.023611738828493222
2.1,0.9404839408260507,0.654052015324759,0.023559398709555247
2.15,0.9404047036953707,0.6540958292367915,0.023507401836044106
2.2,0.9403247904513503,0.6541327762476661,0.023455725399640363
2.25,0.9402443240311369,0.6541627748265954,0.023404346661808382
2.3000000000000003,0.9401634287786945,0.6541857539651537,0.023353242947367705
2.35,0.9400822302387735,0.6542016534015584,0.023302391636753718
2.4000000000000004,0.9400008549466341,0.6542104238294099,0.023251770157220297
2.45,0.939919430213945,0.6542120270897046,0.023201355973249328
2.5,0.9398380839112898,0.6542064363449352,0.023151126576442426
2.5500000000000003,0.9397569442486025,0.6541936365576307,0.023101059475761847
2.6,0.939676139539277,0.6541736238205461,0.023051132186642544
2.6500000000000004,0.939595797991081,0.6541464059485922,0.023001322220494055
2.7,0.9395160474843086,0.6541120027279849,0.022951607076032082
2.75,0.9394370153793513,0.6540704450857913,0.02290196423146531
2.8000000000000003,0.9393588281796943,0.6540217775245026,0.022852371133264198
2.85,0.9392816113946001,0.6539660555046265,0.022802805198126407
2.9000000000000004,0.9392054892960919,0.6539033464256645,0.022753243804236527
2.95,0.939130584685586,0.653833729663247,0.022703664290292094
3,0.939057018618641,0.6537572967583154,0.02265404395573057
3.0500000000000003,0.9389849103131604,0.6536741505058301,0.02260436006658777
3.1,0.9389143768639612,0.6535844053319118,0.022554589858604937
3.1500000000000004,0.9388455330061248,0.6534881873115558,0.022504710545893418
3.2,0.9387784910923223,0.6533856331319889,0.02245469933347936
3.25,0.938713360379408,0.6532768921722909,0.022404533430606242
3.3000000000000003,0.9386502473636503,0.6531621237334323,0.022354190075990335
3.35,0.9385892554043839,0.653041497752915,0.02230364655538444
3.4000000000000004,0.9385304845181579,0.6529151945883784,0.02225288022795737
3.45,0.9384740312157759,0.6527834046404354,0.022201868556348404
3.5,0.9384199883320458,0.6526463280204549,0.02215058913976384
3.5500000000000003,0.9383684448628568,0.6525041741970086,0.022099019750814682
3.6,0.9383194858105622,0.6523571616204947,0.022047138375911834
3.6500000000000004,0.9382731920380182,0.6522055173269934,0.021994923259125727
3.7,0.9382296401315696,0.6520494765228483,0.021942352949391737
3.75,0.9381889022732571,0.6518892821514289,0.021889406350906783
3.8000000000000003,0.9381510461224769,0.6517251844436039,0.021836062776532147
3.85,0.9381161347072855,0.6515574404535086,0.021782302003987904
3.9000000000000004,0.9380842263255016,0.651386313581222,0.021728104334596342
3.95,0.9380553744584184,0.6512120731001254,0.021673450652320188
4,0.9380296276835653,0.6510349936131176,0.02161832249245285
4.05,0.9380070296126934,0.6508553545801877,0.021562702101813193
4.1000000000000005,0.9379876188336091,0.6506734398117681,0.02150657250406591
4.15,0.9379714288581125,0.6504895369349777,0.021449917568685375
4.2,0.9379584880836106,0.6503039368750924,0.021392722078106764
4.25,0.9379488197638989,0.6501169333287824,0.02133497179597558
4.3,0.9379424419892256,0.6499288222426532,0.021276653534453526
4.3500000000000005,0.937939367677283,0.6497399013051476,0.021217755219395968
4.4,0.9379396045708656,0.6495504694053429,0.021158265959169573
4.45,0.9379431552466713,0.6493608261220718,0.021098176108499764
4.5,0.9379500171316806,0.6491712712290403,0.021037477329281705
4.55,0.9379601825304296,0.6489821041409569,0.020976162657142805
4.6000000000000005,0.9379736386584314,0.6487936234505054,0.020914226554895343
4.65,0.9379903676836854,0.6486061264429749,0.02085166496696862
4.7,0.9380103467768858,0.6484199085963079,0.020788475373354053
4.75,0.9380335481687337,0.648235263110553,0.020724656837219593
4.800000000000001,0.93805993921496,0.6480524804414419,0.020660210049116366
4.8500000000000005,0.9380894824670021,0.6478718478489154,0.020595137366627676
4.9,0.9381221357481673,0.6476936489688443,0.020529442847947773
4.95,0.9381578522398835,0.6475181633643958,0.0204631322837514
5,0.9381965805709531,0.647345666113893,0.020396213221360017
5.050000000000001,0.9382382647927502,0.6471764272548555,0.02032869503337135
5.1000000000000005,0.9382828447848692,0.6470107117504988,0.020260588806926223
5.15,0.9383302561748434,0.6468487789102649,0.020191907426869066
5.2,0.9383804303868934,0.6466908819553748,0.02012266560171102
5.25,0.938433294818766,0.6465372677267041,0.020052879834775005
5.300000000000001,0.9384887729607679,0.6463881763466403,0.019982568413567447
5.3500000000000005,0.9385467845184624,0.6462438408939881,0.019911751392907958
5.4,0.9386072455388016,0.64610448709252,0.019840450571791398
5.45,0.9386700687558338,0.6459703335020942,0.01976868935825604
5.5,0.9387351630106258,0.6458415896976718,0.019696493079571584
5.550000000000001,0.9388024341908774,0.6457184576489129,0.019623888552718557
5.6000000000000005,0.9388717850567041,0.645601130868648,0.01955090418527757
5.65,0.9389431153624693,0.6454897941153548,0.019477569931319487
5.7,0.9390163220221696,0.6453846232109959,0.019403917220153295
5.75,0.9390912992547669,0.6452857848269076,0.01932997889064906
5.800000000000001,0.939167938730971,0.6451934362815587,0.01925578912021956
5.8500000000000005,0.9392461297217194,0.6451077253516435,0.019181383348597168
5.9,0.9393257592482969,0.6450287900964736,0.01910679819663497
5.95,0.9394067121818,0.6449567584145763,0.019032071407682552
6,0.9394888715345823,0.6448917485880582,0.01895724168533394
6.050000000000001,0.9395721185254027,0.6448338687375723,0.018882348644829815
6.1000000000000005,0.9396563327062029,0.6447832165614702,0.018807432730248565
6.15,0.9397413922363822,0.6447398800114684,0.018732535054986815
6.2,0.9398271737399259,0.6447039351024001,0.018657697442283884
6.25,0.9399135528188098,0.6446754481157517,0.018582962147308545
6.300000000000001,0.9400004040650566,0.6446544746773891,0.01850837181766757
6.3500000000000005,0.9400876012154669,0.6446410596296427,0.018433969385788736
6.4,0.9401750173092822,0.6446352367473773,0.018359797952311817
6.45,0.9402625248891044,0.6446370294540734,0.018285900666632618
6.5,0.9403499961317013,0.6446464503519416,0.01821232061972214
6.550000000000001,0.9404373030008155,0.6446635010617788,0.018139100732878166
6.6000000000000005,0.9405243174178255,0.6446881730477121,0.018066283661215807
6.65,0.940610911413833,0.6447204454497256,0.01799391162515184
6.7,0.9406969573288734,0.6447602875136766,0.01792202634927886
6.75,0.9407823279469852,0.6448076577269884,0.017850668939532792
6.800000000000001,0.9408668966632592,0.6448625038016307,0.017779879772464174
6.8500000000000005,0.9409505376756827,0.6449247625114619,0.01770969836498947
6.9,0.9410331260863304,0.6449943605046645,0.01764016333524908
6.95,0.941114538094292,0.6450712139472772,0.017571312268538957
7,0.9411946511693082,0.6451552284747438,0.0175031816107663
7.050000000000001,0.9412733441111815,0.6452463000871793,0.01743580666594083
7.1000000000000005,0.9413504974956987,0.6453443132022938,0.01736922126499977
7.15,0.9414259935465495,0.6454491430892303,0.017303457943794568
7.2,0.9414997163908706,0.6455606551430095,0.0172385477731736
7.25,0.9415715522317696,0.6456787049827365,0.0171745202779779
7.300000000000001,0.941641389566641,0.6458031384292652,0.017111403331613043
7.3500000000000005,0.9417091191822181,0.6459337923436493,0.01704922321026529
7.4,0.941774634401852,0.6460704944226847,0.01698800447131359
7.45,0.9418378312714955,0.6462130632732171,0.016927769882578856
7.5,0.9418986085020059,0.6463613093007513,0.016868540515745902
7.550000000000001,0.9419568681915035,0.6465150331752346,0.016810335346403717
7.6000000000000005,0.9420125153668882,0.6466740280480054,0.01675317162058553
7.65,0.942065458347808,0.6468380790415592,0.01669706468647893
7.7,0.9421156089126846,0.6470069634630731,0.016642027965349363
7.75,0.9421628824237058,0.6471804511320627,0.016588072953562245
7.800000000000001,0.9422071979657591,0.6473583046641004,0.01653520921952613
7.8500000000000005,0.9422484784829198,0.6475402797633125,0.0164834444068899
7.9,0.9422866509116458,0.6477261255244712,0.01643278424409297
7.95,0.94232164631042,0.6479155847445583,0.016383232560149674
8,0.942353399985616,0.6481083942433806,0.01633479130650458
8.05,0.942381851613328,0.6483042851928812,0.016287460584774534
8.1,0.942406945356914,0.6485029834547609,0.016241238680165124
8.15,0.9424286299799918,0.6487042099260061,0.01619612210032203
8.200000000000001,0.942446858954627,0.6489076808919035,0.016152105619352732
8.25,0.942461590561221,0.6491131083741938,0.016109182325073135
8.3,0.9424727879958621,0.6493202005309954,0.016067343677030693
8.35,0.9424804194547285,0.6495286620045637,0.016026579560838253
8.4,0.9424844582193921,0.6497381942947777,0.015986878349081645
8.450000000000001,0.9424848827405238,0.6499484961543541,0.015948226967988716
8.5,0.94248167671105465,0.6501592639751658,0.015910610965358056
8.55,0.9424748291337586,0.6503701921836649,0.015874014582069895
8.6,0.9424643343817359,0.6505809736357192,0.01583842082496251
8.65,0.9424501922497521,0.6507913000058109,0.015803811540152885
8.700000000000001,0.9424324080033029,0.6510008622056715,0.01577016749251341
8.75,0.9424109924163134,0.6512093507857312,0.015737468442653765
8.8,0.9423859618011463,0.6514164563294516,0.015705693222673806
8.85,0.942357338034495,0.6516218699014028,0.015674819822093972
8.9,0.9423251485695747,0.6518252834304488,0.015644825460782177
8.950000000000001,0.9422894264426332,0.6520263901178913,0.015615686665713927
9,0.9422502102722502,0.6522248848653744,0.015587379350387186
9.05,0.9422075442485379,0.6524204646881071,0.015559878889690858
9.1,0.9421614781135015,0.6526128291342157,0.015533160193910794
9.15,0.9421120671332897,0.6528016807003401,0.01550719777992942
9.200000000000001,0.9420593720611664,0.6529867252380629,0.015481965837953372
9.25,0.9420034590905513,0.6531676723892063,0.015457438300493532
9.3,0.9419443997992687,0.6533442360003154,0.015433588904355398
9.35,0.9418822710843743,0.6535161345420514,0.015410391249923262
9.4,0.9418171550874179,0.653683091529807,0.015387818856852859
9.450000000000001,0.9417491391101197,0.6538448359449387,0.015365845215800908
9.5,0.9416783155203823,0.6540011026565457,0.015344443835980359
9.55,0.9416047816485842,0.6541516328437649,0.015323588288358855
9.600000000000001,0.9415286396779947,0.6542961744048309,0.015303252243121644
9.65,0.9414499965110273,0.6544344824193028,0.01528340950726858
9.700000000000001,0.9413689636437341,0.6545663195405897,0.015264034051208044
9.75,0.9412856570246897,0.6546914564140818,0.015245100032732753
9.8,0.9412001968988828,0.6548096721135355,0.01522658181811589
9.850000000000001,0.9411127076459805,0.654920754560149,0.015208453996817146
9.9,0.9410233176069589,0.6550245009457315,0.015190691391633775
9.950000000000001,0.9409321589037034,0.6551207181493337,0.015173269064471587
10,0.9408393672525242,0.6552092231411678,0.01515616231687059
10.05,0.9407450817573028,0.6552898434115226,0.015139346687106333
10.100000000000001,0.9406494447018734,0.6553624173728158,0.015122797942470154
10.15,0.9405526014055567,0.655426795089407,0.015106492073656977
10.200000000000001,0.9404546998007176,0.6554828378661068,0.015090405264900323
10.25,0.9403558903221707,0.6555304191030564,0.015074513883278809
10.3,0.9402563257042251,0.6555694248269084,0.01505879446019995
10.350000000000001,0.9401561605686732,0.6555997530924597,0.015043223654702873
10.4,0.9400555515738804,0.6556213169097501,0.015027778254393694
10.450000000000001,0.9399546566655574,0.6556340417718058,0.01501243511697268
10.5,0.9398536350053619,0.6556378670009363,0.0149971711487169
10.55,0.9397526466998903,0.6556327461253545,0.014981963274704507
10.600000000000001,0.9396518525050364,0.6556186470699825,0.014966788404947608
10.65,0.9395514135386019,0.6555955523988818,0.01495162340157035
10.700000000000001,0.9394514909892994,0.6555634595327525,0.014936445046238417
10.75,0.9393522458227158,0.6555223809370169,0.014921230008350408
10.8,0.9392538384849123,0.6554723442781837,0.0149059548145046
10.850000000000001,0.9391564285702976,0.6554133929749342,0.014890595814685086
10.9,0.9390601745939311,0.6553455852149642,0.014875129169200602
10.950000000000001,0.9389652336611258,0.6552689946455712,0.014859530815913999
11,0.9388717611582567,0.6551837105960072,0.014843776447918178
11.05,0.9387799105990472,0.655089836878779,0.0148278415146538
11.100000000000001,0.9386898329322976,0.6549874948304742,0.014811701157241593
11.15,0.9386016766531368,0.6548768197574999,0.01479533026100588
11.200000000000001,0.9385155873905091,0.6547579620835223,0.014778703427260266
11.25,0.938431707609456,0.6546310872447131,0.014761794974483025
11.3,0.9383501762452782,0.6544963757526547,0.014744578941157431
11.350000000000001,0.9382711286900159,0.6543540219035275,0.014727029117889614
11.4,0.9381946963954249,0.6542042340706243,0.014709119054161477
11.450000000000001,0.9381210065774709,0.6540472345457781,0.014690822080471852
11.5,0.9380501823058107,0.6538832581162387,0.014672111354763913
11.55,0.9379823413876732,0.653712554315214,0.01465295986319917
11.600000000000001,0.9379175970975294,0.6535353839329247,0.014633340512030467
11.65,0.9378560576354524,0.6533520196725818,0.014613226158116903
11.700000000000001,0.9377978259015579,0.6531627456871183,0.014592589665178301
11.75,0.937742999348715,0.6529678569489143,0.014571403966960125
11.8,0.9376916697998396,0.6527676586044842,0.014549642142087163
11.850000000000001,0.9376439233079283,0.6525624653991753,0.014527277484115544
11.9,0.9375998400181812,0.652352601050051,0.014504283580702002
11.950000000000001,0.9375594940358126,0.6521383975754974,0.014480634400322196
12,0.9375229533153082,0.6519201946306352,0.014456304380982787
12.05,0.937490279562127,0.6516983388224314,0.0144312685240397
12.100000000000001,0.9374615281484633,0.6514731830233417,0.014405502490132196
12.15,0.9374367480463565,0.6512450856932633,0.014378982696230499
12.200000000000001,0.9374159817670434,0.651014410151709,0.014351686421153777
12.25,0.9373992653197336,0.6507815238824006,0.014323591908041599
12.3,0.9373866281831466,0.650546797854408,0.014294678465591975
12.350000000000001,0.9373780932866511,0.6503106057569338,0.014264926583074183
12.4,0.9373736770098561,0.6500733233537358,0.014234318027771276
12.450000000000001,0.9373733891915866,0.6498353278034011,0.014202835948102552
12.5,0.9373772331498053,0.6495969969561146,0.014170464979993738
12.55,0.9373852057147429,0.6493587086876954,0.014137191346906025
12.600000000000001,0.9373972972734035,0.649120840236795,0.014103002958430514
12.65,0.9374134918235384,0.6488837675610644,0.014067889504626072
12.700000000000001,0.9374337670376265,0.6486478647240072,0.01403184254381188
12.75,0.9374580943388267,0.6484135032513468,0.013994855592615334
12.8,0.9374864389845621,0.64818105153754,0.013956924205568039
12.850000000000001,0.9375187599937895,0.6479508741365761,0.01391804611042897
12.9,0.9375550106651371,0.6477233314802947,0.013878221126551672
12.950000000000001,0.9375951384328255,0.6474987791773169,0.013837451317393806
13,0.9376390848984174,0.6472775674287874,0.013795741073935002
13.05,0.9376867860373932,0.6470600405566509,0.013753097133326647
13.100000000000001,0.9377381723284256,0.646846536509422,0.013709528618099645
13.15,0.9377931688882157,0.6466373863859446,0.01366504706711255
13.200000000000001,0.9378516956115392,0.6464329139778578,0.013619666457942948
13.25,0.9379136673162738,0.6462334353308251,0.013573403220425223
13.3,0.9379789938929795,0.646039258324457,0.013526276241145415
13.350000000000001,0.9380475804586448,0.645850682270813,0.01347830685874457
13.4,0.9381193275142283,0.6456679975313325,0.013429518849929156
13.450000000000001,0.938194131378818,0.6454914857472844,0.013379938256959692
13.5,0.9382718834542143,0.645321417621853,0.013329593841807963
13.55,0.9383524714062329,0.6451580545980501,0.01327851650016516
13.600000000000001,0.9384357789407607,0.6450016478241394,0.013226739418502512
13.65,0.9385216859517459,0.6448524377923653,0.013174298027953276
13.700000000000001,0.9386100687235774,0.6447106541189381,0.01312122991903209
13.75,0.9387008001073344,0.6445765152853795,0.013067574763515994
13.8,0.9387937496980757,0.6444502283944022,0.01301337422803406
13.850000000000001,0.9388887840135015,0.6443319889419437,0.012958671879544081
13.9,0.9389857666739356,0.6442219806051622,0.012903513082999417
13.950000000000001,0.9390845585834471,0.6441203750460659,0.01284794489159395
14,0.9391850181119945,0.644027331730532,0.012792015929994127
14.05,0.9392870012784839,0.6439429977624851,0.012735776271001266
14.100000000000001,0.9393903619346464,0.6438675077330129,0.012679277306117655
14.15,0.9394949519496585,0.6438009835842147,0.012622571610517913
14.200000000000001,0.9396006213531155,0.6437435341278007,0.01256571282703429
14.25,0.9397072186369632,0.643695255830375,0.012508755455770357
14.3,0.9398145908647783,0.6436562321917343,0.012451754748617835
14.350000000000001,0.9399225838345925,0.6436265334886326,0.012394766572057047
14.4,0.940031042352734,0.6436062177046433,0.012337847212193297
14.450000000000001,0.9401398102075488,0.6435953278397194,0.01228105330987034
14.5,0.9402487306240391,0.6435938947711413,0.01222444158544551
14.55,0.9403576463361345,0.6436019361487182,0.01216806873099768
14.600000000000001,0.9404663997748436,0.6436194563014673,0.012111991252183443
