time,e,omega,d
0,0.942,0.6482532304803152,0.02633076200788132
0.05,0.9420195699746995,0.6483925309493234,0.026245720184441077
0.1,0.9420367862977694,0.648533205667999,0.026161666826132066
0.15000000000000002,0.9420516237828986,0.6486750903244782,0.026078598323616694
0.2,0.9420640626468235,0.6488180396722925,0.025996510778399397
0.25,0.9420740792090675,0.6489618584553754,0.0259153981493681
0.30000000000000004,0.9420816579269446,0.6491063841671627,0.025835254300831265
0.35000000000000003,0.9420867850761351,0.649251446238682,0.02575607211873204
0.4,0.9420894499086051,0.6493968730862012,0.025677843671956767
0.45,0.9420896446603392,0.6495424922610328,0.025600560244974566
0.5,0.94208736457947,0.6496881306732708,0.02552421236644843
0.55,0.9420826079469614,0.6498336147978017,0.025448789839573317
0.6000000000000001,0.9420753760939055,0.649978770883725,0.025374281773227175
0.65,0.9420656734150059,0.6501234251654493,0.02530067661386501
0.7000000000000001,0.9420535073781741,0.6502674040752455,0.025227962178014728
0.75,0.9420388885301627,0.6504105344569932,0.025156125685236085
0.8,0.942021830498162,0.6505526437808544,0.025085153791403976
0.8500000000000001,0.9420023499872959,0.650693560358607,0.025015032622178385
0.9,0.9419804667739563,0.6508331135593575,0.02494574780652493
0.9500000000000001,0.941956203694924,0.6509711340253539,0.024877284510152208
1,0.9419295866322317,0.6511074538876103,0.024809627468735176
1.05,0.9419006444937269,0.6512419069810521,0.02474276102079745
1.1,0.9418694091893093,0.651374329058886,0.024676669140129486
1.1500000000000001,0.9418359156028173,0.6515045580058955,0.024611335467624656
1.2000000000000002,0.9418002015595485,0.6516324340503588,0.024546743342420494
1.25,0.9417623077894111,0.6517577999742864,0.02448287583223848
1.3,0.9417222778857072,0.6518805013216664,0.02441971576282214
1.35,0.9416801582595608,0.6520003866044125,0.024357245746380297
1.4000000000000001,0.9416359980900114,0.652117307505701,0.024295448208949803
1.4500000000000002,0.9415898492698042,0.6522311190803857,0.024234305416599797
1.5,0.9415417663469137,0.6523416799521805,0.024173799500407923
1.55,0.941491806461856,0.6524488525072945,0.024113912480147413
1.6,0.9414400292808421,0.6525525030842091,0.024054626286632904
1.6500000000000001,0.9413864969248444,0.6526525021592872,0.02399592278268174
1.7000000000000002,0.9413312738946539,0.6527487245279036,0.023937783782657044
1.75,0.9412744269920139,0.6528410494807904,0.02388019107056804
1.8,0.9412160251011092,0.652929360678091,0.02382312641704172
1.85,0.9411561395501804,0.6530135472525592,0.02376657159155473
1.9000000000000001,0.9410948435155155,0.6530935029600048,0.02371050838165578
1.9500000000000002,0.9410322121245049,0.6531691266999818,0.023654918601833295
2,0.9409683223707901,0.6532403226966547,0.02359978410490383
2.0500000000000003,0.9409032529997352,0.6533070006110977,0.02354508679141935
2.1,0.9408370844050988,0.6533690756749914,0.02349080861781883
2.15,0.9407698985230326,0.6534264688180456,0.0234369316032431
2.2,0.9407017787233953,0.6534791067880599,0.02338343783510046
2.25,0.9406328096985022,0.6535269222633288,0.023330309473457427
2.3000000000000003,0.9405630773786455,0.6535698541285935,0.02327752875673099
2.35,0.9404926687377488,0.6536078471473633,0.02322507799852904
2.4000000000000004,0.9404216717267913,0.6536408523006723,0.023172939591669973
2.45,0.9403501751707901,0.6536688269502425,0.02312109600988231
2.5,0.9402782685873876,0.653691734428131,0.023069529801201596
2.5500000000000003,0.9402060422141679,0.6537095453801082,0.023018223603171684
2.6,0.9401335867030084,0.6537222364136692,0.02296716012544063
2.6500000000000004,0.940060993072873,0.6537297906645203,0.02291632215258864
2.7,0.9399883525865215,0.653732197871904,0.022865692543066817
2.75,0.9399157566178331,0.6537294545464952,0.02281525422834983
2.8000000000000003,0.939843296523927,0.6537215635257728,0.02276499020566416
2.85,0.9397710635246893,0.6537085342536765,0.022714883537812904
2.9000000000000004,0.9396991485782852,0.6536903828672702,0.022664917352045483
2.95,0.9396276422807047,0.6536671316816304,0.022615074832879917
3,0.9395566346642993,0.6536388104926341,0.022565339232850583
3.0500000000000003,0.9394862151411798,0.6536054550764523,0.022515693859436085
3.1,0.9394164723644566,0.6535671076984219,0.022466122077652865
3.1500000000000004,0.9393474941016215,0.6535238171003526,0.02241660731102775
3.2,0.9392793670841002,0.6534756385695849,0.0223671330440365
3.25,0.9392121769646312,0.6534226334259443,0.022317682819722254
3.3000000000000003,0.939146008160138,0.6533648692055202,0.022268240244241934
3.35,0.9390809437235748,0.6533024196572252,0.022218788991618117
3.4000000000000004,0.939017065339213,0.6532353641809666,0.02216931280302542
3.45,0.9389544529204883,0.6531637889325298,0.022119795507277353
3.5,0.938893184811154,0.6530877853510444,0.022070221014395278
3.5500000000000003,0.9388333375746679,0.6530074505486463,0.022020573328155442
3.6,0.93877498588209,0.6529228872107922,0.02197083655682096
3.6500000000000004,0.9387182024237066,0.6528342034142551,0.021920994924192538
3.7,0.9386630578154704,0.6527415124754788,0.021871032782253143
3.75,0.9386096205086254,0.6526449327922424,0.021820934625279592
3.8000000000000003,0.9385579567029811,0.6525445876782966,0.02177068510535116
3.85,0.9385081302639553,0.6524406051911931,0.021720269049245716
3.9000000000000004,0.9384602026434822,0.6523331179537016,0.021669671476706925
3.95,0.9384142328048858,0.6522222629691669,0.021618877620053555
4,0.9383702771518071,0.6521081814311745,0.021567872945092378
4.05,0.9383283894612581,0.651991018527907,0.021516643173286203
4.1000000000000005,0.9382886208208744,0.6518709232415708,0.021465174305119437
4.15,0.9382510195722374,0.6517480481500635,0.021413452643794687
4.2,0.9382156312512634,0.6516225491987669,0.021361464823064454
4.25,0.9381824985427737,0.651494585501931,0.021309197831954736
4.3,0.9381516612355966,0.6513643191291583,0.02125663904188812
4.3500000000000005,0.9381231561794376,0.6512319148795831,0.02120377623564756
4.4,0.9380970172485541,0.6510975400613526,0.02115059763604467
4.45,0.9380732753092671,0.6509613642662131,0.021097091935521298
4.5,0.9380519581918672,0.6508235591448821,0.021043248325816253
4.55,0.9380330906679524,0.6506842981862364,0.020989056527308366
4.6000000000000005,0.9380166944295759,0.6505437564804373,0.020934506820513704
4.65,0.938002788074561,0.6504021104928306,0.020879590076090564
4.7,0.9379913870958602,0.6502595378427817,0.02082429778410487
4.75,0.9379825038737412,0.6501162170535945,0.0207686220868969
4.800000000000001,0.9379761476741447,0.649972327340334,0.02071255580652789
4.8500000000000005,0.9379723246499926,0.6498280483850825,0.02065609247359774
4.9,0.9379710378460197,0.6496835601028663,0.020599226356767263
4.95,0.9379722872080619,0.6495390424179016,0.020541952490242824
5,0.9379760695961804,0.6493946750386712,0.02048426670068882
5.050000000000001,0.9379823788010897,0.6492506372372434,0.02042616563283461
5.1000000000000005,0.937991205564165,0.6491071076363106,0.020367646773155126
5.15,0.9380025376015934,0.6489642639834351,0.020308708474084884
5.2,0.9380163596314979,0.6488222829396317,0.020249349975300368
5.25,0.9380326534044217,0.6486813398685802,0.02018957142369835
5.300000000000001,0.9380513977370563,0.6485416086286809,0.020129373891688757
5.3500000000000005,0.9380725685490829,0.648403261368497,0.02006875939364179
5.4,0.9380961389030227,0.64826646832579915,0.0200077309003808
5.45,0.9381220790469881,0.6481313976303941,0.019946292351618912
5.5,0.9381503564586854,0.647998215117124,0.01988444866594304
5.550000000000001,0.938180935897858,0.6478670841188968,0.01982220574980846
5.6000000000000005,0.9382137794540859,0.6477381652958918,0.019759570502450346
5.65,0.9382488465993739,0.6476116164574861,0.01969655081911723
5.7,0.9382860942452552,0.647487592379988,0.019633155592358422
5.75,0.9383254768005062,0.6473662446366935,0.01956939471032039
5.800000000000001,0.9383669462317201,0.6472477214304435,0.01950527905250016
5.8500000000000005,0.9384104521251715,0.6471321674324723,0.01944082048316148
5.9,0.9384559417493733,0.6470197236305236,0.01937603184203184
5.95,0.9385033601234588,0.6469105271703496,0.019310926932265264
6,0.9385526500844084,0.6468047112111304,0.0192455205059047
6.050000000000001,0.9386037523006282,0.6467024046639941,0.019179828271789587
6.1000000000000005,0.9386566054865622,0.6466037323490654,0.019113866811871043
6.15,0.9387111463869059,0.64650881469409,0.019047653598124274
6.2,0.9387673098217303,0.646417767551139,0.018981206980499005
6.25,0.938825028903181,0.6463307024246845,0.018914546095007964
6.300000000000001,0.9388842347449925,0.6462477254238451,0.018847691003062068
6.3500000000000005,0.9389448569569673,0.6461689381635484,0.01878066246871527
6.4,0.9390068235617847,0.6460944372906109,0.01871348199791339
6.45,0.9390700610657069,0.6460243143527143,0.018646171806713782
6.5,0.9391344945519642,0.6459586557343379,0.018578754776820548
6.550000000000001,0.9392000477632853,0.6458975425697322,0.018511254414747977
6.6000000000000005,0.9392666431851827,0.6458410506606366,0.018443694809097105
6.65,0.9393342021300548,0.6457892503995135,0.018376100586040802
6.7,0.9394026448220912,0.6457422066983525,0.018308496863125023
6.75,0.9394718904585372,0.6456999787664272,0.01824090921211672
6.800000000000001,0.9395418573615841,0.6456626204384546,0.018173363581301647
6.8500000000000005,0.939612463022606,0.6456301798900451,0.018105886263509324
6.9,0.9396836241760996,0.6456026995118052,0.018038503850717705
6.95,0.9397552569406227,0.6455802163019363,0.017971243161063306
7,0.9398272767744364,0.645562760670821,0.017904131234588467
7.050000000000001,0.9398995987247154,0.6455503576793279,0.01783719521917092
7.1000000000000005,0.93997213744939,0.6455430265387088,0.0177704623412821
7.15,0.9400448073051124,0.6455407805522707,0.017703959851923787
7.2,0.9401175224399038,0.6455436269727725,0.017637714966809798
7.25,0.9401901968936462,0.6455515674030332,0.01757175481607594
7.300000000000001,0.9402627446790582,0.6455645975471102,0.017506106387661164
7.3500000000000005,0.9403350798699586,0.6455827071304014,0.017440796472147253
7.4,0.9404071166835561,0.6456058803551298,0.0173758516252249
7.45,0.9404787696016058,0.6456340947271572,0.01731129806409846
7.5,0.9405499534422765,0.6456673223842958,0.017247161663859242
7.550000000000001,0.9406205834508556,0.6457055296279872,0.017183467889791047
7.6000000000000005,0.9406905753941568,0.6457486769163694,0.017120241744135126
7.65,0.940759845671563,0.6457967187790982,0.017057507701941473
7.7,0.9408283113589535,0.6458496042584863,0.016995289700714487
7.75,0.940895890323758,0.6459072767160446,0.01693361107215232
7.800000000000001,0.9409625013240415,0.6459696738055858,0.016872494489998363
7.8500000000000005,0.9410280640276586,0.6460367279572877,0.016811961977634654
7.9,0.9410924992965124,0.6461083653197526,0.01675203472738627
7.95,0.9411557290744436,0.6461845070770915,0.016692733210054843
8,0.9412176765441205,0.6462650690511358,0.016634077084185527
8.05,0.9412782662234258,0.6463499617493018,0.01657608515590002
8.1,0.9413374240897522,0.6464390903471118,0.016518775325057477
8.15,0.9413950775638705,0.646532355138032,0.01646216461782379
8.200000000000001,0.9414511556537934,0.6466296514147872,0.016406269122235206
8.25,0.9415055890594143,0.6467308695018794,0.016351103950799504
8.3,0.9415583101256907,0.6468358952329389,0.016296683291965302
8.35,0.9416092532778896,0.6469446091007124,0.016243020191898057
8.4,0.9416583547261267,0.6470568874595778,0.01619012675305237
8.450000000000001,0.9417055526806953,0.6471726022362275,0.01613801404044021
8.5,0.9417507874438363,0.6472916210341139,0.01608669206299123
8.55,0.9417940014761282,0.6474138073016867,0.016036169771071553
8.6,0.941835139471844,0.6475390204753647,0.015986455050429574
8.65,0.9418741484329114,0.6476671161272423,0.01593755471878873
8.700000000000001,0.9419109777410326,0.6477979461178873,0.01588947452516806
8.75,0.94194557922784,0.6479313587542327,0.01584221915190137
8.8,0.9419779072429826,0.6480671989524296,0.015795792219307894
8.85,0.942007918720026,0.6482053084055566,0.01575019629296203
8.9,0.9420355732400413,0.6483455257560709,0.01570543289349949
8.950000000000001,0.9420608330927662,0.6484876867728699,0.01566150250888793
9,0.9420836633352148,0.6486316245328317,0.015618404609080844
9.05,0.9421040318458536,0.6487771696005419,0.015576137662381492
9.1,0.9421219093829228,0.6489241502355182,0.015534699156163834
9.15,0.9421372696304311,0.6490723925732649,0.015494085616957684
9.200000000000001,0.9421500892447413,0.6492217208206068,0.015454292633407288
9.25,0.942160347900459,0.6493719574631618,0.015415314881861765
9.3,0.9421680283307471,0.6495229234691635,0.015377146153059589
9.35,0.9421731163648029,0.6496744384990902,0.015339779380737733
9.4,0.942175600961657,0.649826321115869,0.015303206671274595
9.450000000000001,0.9421754742392108,0.6499783889931674,0.015267419334100479
9.5,0.9421727315023051,0.6501304591402007,0.015232407915109302
9.55,0.9421673712648205,0.6502823481183305,0.015198162229685841
9.600000000000001,0.9421593952677915,0.6504338722546111,0.01516467139574221
9.65,0.9421488084957971,0.6505848478852012,0.015131923871818128
9.700000000000001,0.9421356191858805,0.6507350915642173,0.01509990749017668
9.75,0.9421198388337804,0.6508844202866817,0.015068609492220364
9.8,0.9421014821966482,0.6510326517225289,0.01503801656575742
9.850000000000001,0.9420805672905271,0.6511796044427803,0.015008114881020964
9.9,0.9420571153834212,0.651325098149045,0.014978890127087866
9.950000000000001,0.9420311509842597,0.6514689539006859,0.014950327547721019
10,0.9420027018271501,0.6516109943364372,0.014922411975982822
10.05,0.9419717988508789,0.6517510439110273,0.014895127870825343
10.100000000000001,0.9419384761738939,0.6518889291192878,0.01486845935120928
10.15,0.9419027710657312,0.6520244787142302,0.014842390228735293
10.200000000000001,0.9418647239099602,0.6521575239522893,0.014816904043682888
10.25,0.9418243781670247,0.652287898799701,0.014791984094556955
10.3,0.9417817803311168,0.6524154401502706,0.014767613468439814
10.350000000000001,0.941736979880988,0.6525399880509402,0.014743775071746101
10.4,0.9416900292271156,0.6526613859157829,0.014720451658332936
10.450000000000001,0.941640983653642,0.6527794807397319,0.014697625856588643
10.5,0.9415899012566905,0.6528941233068702,0.014675280194898761
10.55,0.9415368428791854,0.6530051683897502,0.014653397124815294
10.600000000000001,0.9414818720376048,0.6531124749593243,0.014631959044569296
10.65,0.9414250548470741,0.6532159063793749,0.014610948319561624
10.700000000000001,0.9413664600083793,0.6533153307332659,0.014590347301781135
10.75,0.9413061585527899,0.6534106206837621,0.01457013834731163
10.8,0.9412442238595803,0.6535016538443957,0.014550303831605355
10.850000000000001,0.9411807315985757,0.6535883130196245,0.01453082616346069
10.9,0.9411157594667194,0.6536704859787357,0.014511687794468984
10.950000000000001,0.941049387524512,0.6537480666846522,0.014492871239019876
11,0.9409816975978407,0.6538209543003094,0.014474359075439494
11.05,0.9409127733644937,0.653889053759056,0.01445613395530571
11.100000000000001,0.9408427002554518,0.6539522759448607,0.01443817861046425
11.15,0.9407715653275731,0.6540105377950589,0.014420475857166428
11.200000000000001,0.9406994571472866,0.6540637624274838,0.014403008599297535
11.25,0.9406264656717477,0.6541118792604348,0.014385759830253243
11.3,0.9405526821274882,0.6541548241242989,0.014368712633574376
11.350000000000001,0.9404781988867169,0.6541925393645194,0.01435185018244321
11.4,0.9404031093649222,0.6542249741226043,0.014335155740752864
11.450000000000001,0.940327507828291,0.654252083957627,0.014318612654608055
11.5,0.9402514893076775,0.6542738311966039,0.014302204352129198
11.55,0.9401751494816374,0.654290185092119,0.014285914340890186
11.600000000000001,0.9400985845014626,0.6543011213573761,0.014269726197252353
11.65,0.9400218909607831,0.6543066235995629,0.01425362357634782
11.700000000000001,0.9399451656302733,0.654306681832958,0.014237590191863032
11.75,0.9398685053824665,0.6543012930737799,0.01422160981494617
11.8,0.9397920070574666,0.6542904614000932,0.014205666269750663
11.850000000000001,0.9397157673146944,0.6542741981084095,0.014189743428854967
11.9,0.9396398825168341,0.6542525212195183,0.014173825205060617
11.950000000000001,0.9395644485897912,0.654225455755472,0.014157895547742822
12,0.9394895608869921,0.6541930338104027,0.014141938439337788
12.05,0.9394153141057794,0.6541552939853902,0.014125937888838792
12.100000000000001,0.9393418020167323,0.6541122827387111,0.014109877934604583
12.15,0.9392691174701493,0.654064052779906,0.014093742637488863
12.200000000000001,0.9391973522270398,0.6540106635861727,0.014077516080195487
12.25,0.9391265968260393,0.6539521813660061,0.014061182367773796
12.3,0.9390569404216574,0.6538886791053187,0.014044725629488344
12.350000000000001,0.9389884707622832,0.6538202360134638,0.014028130019461037
12.4,0.9389212740165208,0.6537469376897991,0.014011379720657885
12.450000000000001,0.9388554346384895,0.6536688760961571,0.0139944589504395
12.5,0.9387910353882148,0.6535861489574852,0.013977351963969454
12.55,0.9387281568590069,0.6534988608633416,0.013960043070380478
12.600000000000001,0.9386668777555004,0.6534071217369715,0.013942516635769345
12.65,0.9386072746550012,0.6533110472104421,0.013924757095817433
12.700000000000001,0.9385494218944406,0.6532107584971699,0.013906748969267064
12.75,0.938493391486103,0.6531063821811237,0.013888476872533069
12.8,0.9384392530266085,0.6529980500373901,0.013869925535926085
12.850000000000001,0.9383870736096124,0.6528858988462329,0.01385107982160188
12.9,0.9383369177427221,0.6527700702003938,0.013831924743137871
12.950000000000001,0.9382888472687373,0.6526507103059157,0.013812445486701444
13,0.93824292129129,0.6525279697769493,0.01379262743376783
13.05,0.9381991961049682,0.6524020034249566,0.013772456185331142
13.100000000000001,0.9381577251299849,0.6522729700427411,0.013751917587541705
13.15,0.938118558851453,0.6521410321837409,0.013730997758692253
13.200000000000001,0.9380817447633056,0.6520063559370196,0.013709683117465414
13.25,0.9380473273184761,0.6518691107059348,0.013687960411386738
13.3,0.9380153478774408,0.6517294689546955,0.013665816750031404
13.350000000000001,0.9379858446701886,0.6515876059892094,0.013643239634281578
13.4,0.9379588527594426,0.6514436997223818,0.013620216988221861
13.450000000000001,0.9379344040063041,0.6512979304268758,0.013596737193012862
13.5,0.9379125270427394,0.6511504804949865,0.01357278912015108
13.55,0.9378932472482795,0.6510015341942548,0.013548362165575586
13.600000000000001,0.9378765867312426,0.6508512774249152,0.013523446283627378
13.65,0.9378625643154096,0.650699897482612,0.0134980320203631
13.700000000000001,0.937851195529302,0.6505475828046519,0.013472110549108537
13.75,0.9378424926013417,0.650394522729004,0.013445673704026722
13.8,0.9378364644589507,0.6502409072594233,0.013418714012612297
13.850000000000001,0.9378331167318718,0.6500869268008332,0.013391224731908227
13.9,0.9378324517601166,0.6499327719359501,0.013363199878426626
13.950000000000001,0.9378344686054984,0.6497786331893864,0.013334634259302825
14,0.937839163067196,0.649624700782737,0.013305523503957943
14.05,0.9378465277014121,0.6494711644015099,0.013275864093207142
14.100000000000001,0.9378565518449973,0.6493182129616812,0.013245653387432424
14.15,0.9378692216422512,0.6491660343814285,0.013214889653068936
14.200000000000001,0.9378845200750159,0.6490148153617535,0.013183572086692474
14.25,0.9379024269975662,0.6488647411545521,0.013151700839335494
14.3,0.9379229191738723,0.6487159953463616,0.013119277037373858
14.350000000000001,0.9379459703182399,0.6485687596434665,0.013086302801701867
14.4,0.9379715511391145,0.6484232136606464,0.013052781264799876
14.450000000000001,0.9379996293858863,0.648279534714097,0.0130187165855319
14.5,0.9380301698985807,0.648137897618719,0.012984113961567982
14.55,0.9380631346603144,0.6479984744899255,0.012948979639334052
14.600000000000001,0.9380984828505494,0.6478614345563312,0.012913320921198304
