time,e,omega,d
0,0.942,0.6482848842903546,0.02633076200788132
0.05,0.9420221168395067,0.6483279458703233,0.02624501362329032
0.1,0.9420435392146851,0.648371629604093,0.02615980318623271
0.15000000000000002,0.9420642559287847,0.6484159274284036,0.02607513097722953
0.2,0.942084257290721,0.6484608321662466,0.025990997188179103
0.25,0.9421035305061723,0.6485063341015072,0.02590740201362419
0.30000000000000004,0.9421220652507484,0.6485524250365844,0.025824345527368744
0.35000000000000003,0.9421398508708707,0.6485990962958754,0.025741827749681392
0.4,0.9421568768574476,0.6486463390567274,0.02565984863472237
0.45,0.9421731328467883,0.6486941443525691,0.025578408070792275
0.5,0.9421886086236683,0.6487425030756625,0.025497505880069878
0.55,0.9422032941239201,0.6487914059797398,0.025417141818494013
0.6000000000000001,0.9422171794273325,0.6488408436910654,0.0253373155798299
0.65,0.942230254791102,0.6488908066836762,0.02525802678225994
0.7000000000000001,0.9422425106186046,0.6489412853125855,0.025179274983068
0.75,0.9422539374743345,0.6489922698047741,0.025101059673174015
0.8,0.9422645260874416,0.649043750260945,0.025023380276727885
0.8500000000000001,0.9422742673530936,0.6490957166590676,0.02494623615165796
0.9,0.9422831523348318,0.6491481588569771,0.024869626589801755
0.9500000000000001,0.9422911722668966,0.6492010665949536,0.02479355081706948
1,0.9422983185565167,0.6492544294982793,0.02471800799364174
1.05,0.9423045827861608,0.6493082370797724,0.024642997214200792
1.1,0.9423099567157527,0.6493624787422934,0.024568517508194825
1.1500000000000001,0.942314432284851,0.6494171437812225,0.02449456784013454
1.2000000000000002,0.9423180016147913,0.6494722213869029,0.024421147109921455
1.25,0.9423206570107935,0.649527700647049,0.024348254153207245
1.3,0.9423223909640344,0.6495835705491148,0.024275887741783485
1.35,0.9423231961536843,0.6496398199826198,0.024204046584000938
1.4000000000000001,0.9423230654489103,0.64969643774143,0.02413272932521781
1.4500000000000002,0.9423219919108453,0.6497534125259898,0.0240619345482761
1.5,0.9423199687945233,0.6498107329455008,0.023991660774005306
1.55,0.9423169895507838,0.6498683875200467,0.0239219064617527
1.6,0.9423130478281423,0.6499263646826586,0.023852670009939268
1.6500000000000001,0.9423081374746319,0.6499846527813186,0.023783949756640603
1.7000000000000002,0.9423022525396133,0.6500432400808974,0.023715743980191755
1.75,0.9422953872755556,0.6501021147650239,0.02364805089981524
1.8,0.9422875361397897,0.6501612649378816,0.023580868676271318
1.85,0.9422786937962333,0.6502206786259308,0.023514195412529592
1.9000000000000001,0.9422688551170901,0.6502803437795497,0.023448029154461005
1.9500000000000002,0.9422580151845237,0.6503402482745945,0.02338236789154938
2,0.942246169292308,0.6504003799138738,0.02331720955762142
2.0500000000000003,0.9422333129474545,0.6504607264285319,0.023252552031594334
2.1,0.9422194418718177,0.650521275479341,0.02318839313824005
2.15,0.9422045520036819,0.6505820146578953,0.02312473064896507
2.2,0.942188639499328,0.6506429314877076,0.023061562282604912
2.25,0.9421717007345836,0.6507040134252002,0.022998885706232302
2.3000000000000003,0.9421537323063583,0.6507652478605913,0.022936698535977885
2.35,0.9421347310341647,0.6508266221186693,0.02287499833786267
2.4000000000000004,0.942114693961626,0.6508881234594556,0.022813782628641057
2.45,0.9420936183579754,0.6509497390787492,0.02275304887665347
2.5,0.9420715017195456,0.6510114561085516,0.022692794502687606
2.5500000000000003,0.9420483417712504,0.6510732616173682,0.02263301688084722
2.6,0.9420241364680646,0.6511351426103827,0.02257371333942747
2.6500000000000004,0.9419988839964977,0.651197086029502,0.022514881161795803
2.7,0.9419725827760691,0.6512590787532668,0.02245651758727731
2.75,0.9419452314607839,0.6513211075966274,0.022398619812043562
2.8000000000000003,0.9419168289406122,0.6513831593105787,0.02234118499000391
2.85,0.9418873743429742,0.651445220581653,0.022284210233698205
2.9000000000000004,0.9418568670342338,0.6515072780312686,0.022227692615189965
2.95,0.9418253066212021,0.6515693182149284,0.022171629166958886
3,0.9417926929526541,0.6516313276212681,0.022116016882791807
3.0500000000000003,0.9417590261208606,0.651693292670952,0.022060852718671017
3.1,0.9417243064631383,0.6517551997154101,0.022006133593659
3.1500000000000004,0.9416885345634192,0.6518170350354179,0.0219518563907785
3.2,0.9416517112538445,0.651878784839515,0.02189801795788706
3.25,0.9416138376163834,0.6519404352622606,0.021844615108544924
3.3000000000000003,0.9415749149844798,0.6520019723623222,0.021791644622875424
3.35,0.9415349449447308,0.6520633821203983,0.021739103248416776
3.4000000000000004,0.9414939293385995,0.652124650436972,0.02168698770096447
3.45,0.9414518702641631,0.6521857631298932,0.021635294665403124
3.5,0.9414087700779012,0.6522467059317891,0.021584020796527003
3.5500000000000003,0.9413646313965276,0.6523074644873026,0.021533162719848148
3.6,0.9413194570988651,0.6523680243501544,0.021482717032391258
3.6500000000000004,0.9412732503277704,0.6524283709800327,0.02143268030347437
3.7,0.9412260144921095,0.6524884897393064,0.021383049075474385
3.75,0.9411777532687864,0.6525483658895638,0.02133381986457661
3.8000000000000003,0.9411284706048296,0.6526079845879752,0.02128498916150731
3.85,0.9410781707195387,0.6526673308834828,0.021236553432248475
3.9000000000000004,0.9410268581066921,0.6527263897128155,0.021188509118733784
3.95,0.9409745375368224,0.6527851458963317,0.02114085263952503
4,0.9409212140595585,0.652843584133692,0.021093580390468013
4.05,0.9408668930060406,0.6529016889993633,0.021046688745327093
4.1000000000000005,0.9408115799914077,0.6529594449379563,0.021000174056397487
4.15,0.9407552809173635,0.6530168362594021,0.020954032655094504
4.2,0.9406980019748201,0.6530738471339677,0.020908260852518817
4.25,0.9406397496466253,0.6531304615871176,0.020862854939996938
4.3,0.9405805307103732,0.6531866634942268,0.02081781118959607
4.3500000000000005,0.940520352241303,0.6532424365751471,0.020773125854612454
4.4,0.9404592216152858,0.6532977643886371,0.02072879517003238
4.45,0.9403971465119039,0.6533526303266606,0.020684815352965076
4.5,0.9403341349176225,0.6534070176085617,0.020641182603046537
4.55,0.9402701951290579,0.653460909275126,0.020597893102813566
4.6000000000000005,0.9402053357562296,0.653514288182734,0.020554943018036474
4.65,0.9401395657263347,0.6535671369966628,0.0205123284980627
4.7,0.9400728942870779,0.6536194381852958,0.020470045676070126
4.75,0.9400053310102857,0.6536711740139096,0.02042809066930965
4.800000000000001,0.9399368857957818,0.6537223265381304,0.020386459579329528
4.8500000000000005,0.9398675688752329,0.6537728775975846,0.020345148492150064
4.9,0.9397973908161149,0.6538228088094906,0.020304153478405126
4.95,0.9397263625257855,0.6538721015622382,0.020263470593447474
5,0.9396544952556594,0.653920737008976,0.020223095877416705
5.050000000000001,0.9395818006054852,0.6539686960612332,0.020183025355269002
5.1000000000000005,0.939508290527721,0.6540159593825938,0.020143255036767855
5.15,0.9394339773320095,0.6540625073824494,0.020103780916434867
5.2,0.93935887368975,0.6541083202098535,0.02006459897345983
5.25,0.9392829926387631,0.654153377747507,0.02002570517156917
5.300000000000001,0.9392063475880473,0.6541976596059,0.01998709545885197
5.3500000000000005,0.9391289523226224,0.6542411451176459,0.019948765767542672
5.4,0.9390508210084557,0.6542838133320336,0.019910712013759588
5.45,0.9389719681974673,0.6543256430098403,0.019872930097198437
5.5,0.9388924088326073,0.6543666126184339,0.019835415900779984
5.550000000000001,0.9388121582529989,0.6544067003272093,0.019798165290250996
5.6000000000000005,0.9387312321991432,0.6544458840033969,0.019761174113737616
5.65,0.9386496468181735,0.6544841412082867,0.019724438201250364
5.7,0.9385674186691539,0.6545214491939138,0.01968795336413998
5.75,0.938484564728412,0.6545577849002524,0.01965171539450319
5.800000000000001,0.9384011023949346,0.6545931249529647,0.01961572006453189
5.8500000000000005,0.9383170494957106,0.654627445661746,0.0195799631258221
5.9,0.9382324242909489,0.6546607230194363,0.019544440308641428
5.95,0.9381472454796439,0.6546929327016651,0.019509147321102874
6,0.9380615322048406,0.6547240500674082,0.01947407984831678
6.050000000000001,0.9379753040589116,0.654754050160356,0.019439233551482176
6.1000000000000005,0.9378885810887834,0.6547829077111768,0.019404604066922175
6.15,0.9378013838010877,0.6548105971407459,0.019370187005063995
6.2,0.9377137331672163,0.6548370925644049,0.019335977949363155
6.25,0.9376256506282618,0.654862367797317,0.01930197245517144
6.300000000000001,0.9375371581131913,0.6548863963530794,0.019268166047692645
6.3500000000000005,0.9374482780103116,0.6549091514715734,0.019234554222827913
6.4,0.9373590331914443,0.6549306061157786,0.019201132444652595
6.45,0.937269447022784,0.6549507329781247,0.019167896143652847
6.5,0.9371795433315364,0.6549695045121557,0.01913484071789207
6.550000000000001,0.9370893465086824,0.6549868928944221,0.019101961524594206
6.6000000000000005,0.9369988814038381,0.6550028700973526,0.019069253886150647
6.65,0.9369081733687954,0.6550174078836606,0.01903671308576951
6.7,0.9368172482637996,0.6550304778230913,0.019004334365595964
6.75,0.9367261324566181,0.6550420513142857,0.018972112925248776
6.800000000000001,0.9366348528245322,0.6550520996067528,0.01894004392007992
6.8500000000000005,0.9365434367558981,0.6550605938247299,0.018908122459380873
6.9,0.9364519121512239,0.6550675049929918,0.018876343604539957
6.95,0.9363603074237264,0.6550728040646603,0.018844702367152858
7,0.9362686514993331,0.6550764619510544,0.018813193707088505
7.050000000000001,0.9361769738160912,0.6550784495536208,0.01878181253051299
7.1000000000000005,0.936085304322947,0.6550787377979707,0.018750553687874462
7.15,0.9359936734778578,0.6550772976700464,0.01871941197185242
7.2,0.9359021122451977,0.6550741002544292,0.018688382115275
7.25,0.935810652092421,0.655069116774793,0.018657458789008468
7.300000000000001,0.935719324985944,0.655062318636494,0.018626636599823394
7.3500000000000005,0.935628163386209,0.6550536774712828,0.01859591008824248
7.4,0.9355372002418942,0.655043165184105,0.01856527372637545
7.45,0.9354464689832328,0.6550307540019484,0.018534721915746892
7.5,0.935356003514408,0.6550164165246853,0.018504248985123397
7.550000000000001,0.9352658382049902,0.6550001257778343,0.018473849188346856
7.6000000000000005,0.935176007880385,0.6549818552671635,0.01844351670218127
7.65,0.9350865478112633,0.654961579035033,0.018413245624180865
7.7,0.9349974937019441,0.6549392717183661,0.01838302997058798
7.75,0.9349088816781435,0.6549149086061566,0.018352863674334308
7.800000000000001,0.9348207482720242,0.6548884657057975,0.018322740582833168
7.8500000000000005,0.934733130408136,0.6548599198008981,0.018292654456180828
7.9,0.9346460653876081,0.6548292485135112,0.018262598965286272
7.95,0.9345595908705868,0.6547964303699313,0.018232567689991784
8,0.9344737448580038,0.6547614448647788,0.018202554117369606
8.05,0.9343885656721362,0.6547242725258262,0.018172551640105374
8.1,0.9343040919359927,0.6546848949790651,0.018142553554994827
8.15,0.9342203625515554,0.6546432950137029,0.01811255306156672
8.200000000000001,0.9341374166768834,0.6545994566468338,0.018082543260845328
8.25,0.9340552937020945,0.6545533651875212,0.018052517154265355
8.3,0.9339740332242408,0.654505007300017,0.018022467642752688
8.35,0.9338936750211073,0.654454371065842,0.017992387525984255
8.4,0.9338142590239602,0.6544014460444392,0.017962269501840586
8.450000000000001,0.9337358252892817,0.6543462233321206,0.017932106166064523
8.5,0.9336584139695305,0.6542886956190147,0.017901890012139654
8.55,0.933582065282975,0.6542288572437349,0.017871613431401714
8.6,0.9335068194826482,0.6541667042454833,0.017841268713396113
8.65,0.9334327168244824,0.65410223441332,0.017810848046494458
8.700000000000001,0.933359797534681,0.6540354473323284,0.0177803435187825
8.75,0.9332881017763963,0.6539663444264221,0.01774974711923154
8.8,0.9332176696157795,0.6538949289975527,0.01771905073916469
8.85,0.9331485409874785,0.6538212062610904,0.0176882461740288
8.9,0.9330807556596593,0.6537451833771695,0.01765732512548216
8.950000000000001,0.9330143531983662,0.6536668694779052,0.0176262792038324
9,0.9329493729320136,0.6535862756902114,0.017595099930755698
9.05,0.9328858539164665,0.6535034151530499,0.017563778742327646
9.1,0.9328238348976076,0.6534183030321211,0.017532306992544794
9.15,0.9327633542756559,0.6533309565282824,0.01750067595708522
9.200000000000001,0.932704450069171,0.653241394881453,0.017468876837447286
9.25,0.9326471598791266,0.6531496393697065,0.01743690076545164
9.3,0.9325915208532063,0.653055713303489,0.017404738808104152
9.35,0.9325375696504109,0.6529596420149779,0.01737238197281984
9.4,0.932485342406068,0.6528614528426236,0.017339821213006836
9.450000000000001,0.9324348746973276,0.6527611751109463,0.017307047434007815
9.5,0.9323862015092317,0.6526588401056832,0.017274051499395166
9.55,0.9323393572014391,0.6525544810444108,0.017240824237614596
9.600000000000001,0.9322943754756825,0.6524481330427885,0.01720735644897073
9.65,0.9322512893440374,0.6523398330765954,0.017173638912946657
9.700000000000001,0.9322101310980716,0.6522296199397508,0.01713966239584833
9.75,0.9321709322789417,0.6521175341985314,0.017105417658763274
9.8,0.9321337236485029,0.6520036181422116,0.01707089546582183
9.850000000000001,0.932098535161487,0.6518879157303749,0.017036086592748103
9.9,0.9320653959388014,0.6517704725371491,0.017000981835686588
9.950000000000001,0.9320343342419983,0.6516513356926373,0.016965572020289324
10,0.9320053774489538,0.6515305538218172,0.016929848011047716
10.05,0.9319785520307947,0.6514081769811949,0.01689380072085194
10.100000000000001,0.9319538835301029,0.6512842565934948,0.016857421120760278
10.15,0.9319313965404243,0.6511588453806755,0.016820700249959953
10.200000000000001,0.9319111146876958,0.6510319972978077,0.0167836292255721
10.25,0.93189306061064,0.6509037674572666,0.016746199253879004
10.3,0.931877255945735,0.6507742120632578,0.016708401639999836
10.350000000000001,0.9318637213122803,0.6506433883418884,0.016670227798303537
10.4,0.9318524762979544,0.650511354467786,0.016631669263364277
10.450000000000001,0.9318435394465167,0.6503781694933635,0.01659271770058072
10.5,0.931836928246705,0.6502438932779016,0.016553364916910247
10.55,0.9318326591224367,0.6501085864169797,0.016513602871640946
10.600000000000001,0.9318307474243016,0.6499723101725494,0.016473423687172424
10.65,0.9318312074223297,0.6498351264038534,0.016432819659783993
10.700000000000001,0.9318340523000057,0.6496970974993708,0.016391783270369848
10.75,0.9318392941495022,0.6495582863099623,0.016350307195121077
10.8,0.9318469439680965,0.6494187560833675,0.016308384316134603
10.850000000000001,0.9318570116557406,0.649278570400194,0.016266007731929773
10.9,0.9318695060137429,0.6491377931115185,0.016223170767853456
10.950000000000001,0.9318844347445264,0.6489964882782093,0.01617986698635536
11,0.9319018044524225,0.6488547201120609,0.01613609019711553
11.05,0.9319216206454561,0.6487125529188166,0.016091834467006776
11.100000000000001,0.9319438877380837,0.6485700510431435,0.016047094129875237
11.15,0.9319686090548374,0.6484272788156067,0.016001863796123023
11.200000000000001,0.9319957868348347,0.6482843005016795,0.01595613836207743
11.25,0.9320254222371072,0.6481411802528131,0.01590991301913201
11.3,0.932057515346705,0.6479979820595763,0.015863183262645363
11.350000000000001,0.9320920651815355,0.6478547697068688,0.015815944900584165
11.4,0.9321290696998893,0.6477116067311965,0.015768194061897813
11.450000000000001,0.9321685258086144,0.6475685563799937,0.01571992720461252
11.5,0.9322104293718936,0.647425681572964,0.01567114112363355
11.55,0.9322547752205862,0.6472830448654091,0.015621832958244916
11.600000000000001,0.9323015571620931,0.6471407084135034,0.015572000199296509
11.65,0.9323507679907059,0.6469987339414702,0.015521640696069289
11.700000000000001,0.9324023994984025,0.6468571827106093,0.015470752662809895
11.75,0.9324564424860537,0.6467161154901206,0.015419334684926565
11.8,0.9325128867750033,0.6465755925296659,0.015367385724838945
11.850000000000001,0.9325717212189898,0.6464356735336084,0.015314905127475012
11.9,0.9326329337163772,0.6462964176368668,0.01526189262540881
11.950000000000001,0.9326965112226634,0.6461578833823188,0.015208348343633427
12,0.9327624397633338,0.6460201286995675,0.015154272803987477
12.05,0.9328307044467717,0.6458832108852678,0.015099666929181788
12.100000000000001,0.9329012894770715,0.6457471865854424,0.015044532046310405
12.15,0.9329741781678709,0.6456121117775556,0.014988869890303031
12.200000000000001,0.93304935295568725,0.6454780417549396,0.014932682606750555
12.25,0.9331267954135005,0.6453450311121463,0.014875972754393762
12.3,0.933206486264459,0.6452131337313508,0.0148187433072305
12.350000000000001,0.9332884053956696,0.645082402769785,0.014760997656231937
12.4,0.9333725318720497,0.6449528906481387,0.014702739610666876
12.450000000000001,0.9334588439502277,0.6448246490398699,0.014643973399033455
12.5,0.9335473190924731,0.6446977288613702,0.014584703669597989
12.55,0.9336379339806449,0.6445721802629264,0.014524935490541032
12.600000000000001,0.9337306645301413,0.6444480526204308,0.01446467434971135
12.65,0.9338254859038427,0.6443253945277868,0.014403926153988613
12.700000000000001,0.9339223725260324,0.6442042537899635,0.014342697228256172
12.75,0.9340212980962881,0.6440846774166539,0.014280994313985612
12.8,0.9341222356033332,0.6439667116164929,0.014218824567435057
12.850000000000001,0.9342251573388398,0.6438504017917958,0.014156195557463674
12.9,0.9343300349111766,0.6437357925337771,0.014093115262965023
12.950000000000001,0.9344368392590939,0.6436229276182144,0.01402959206992233
13,0.9345455406653405,0.6435118500015239,0.013965634768089081
13.05,0.9346561087702061,0.6434026018172146,0.013901252547298524
13.100000000000001,0.9347685125849882,0.6432952243726922,0.013836454993406203
13.15,0.9348827205053736,0.6431897581463846,0.013771252083869681
13.200000000000001,0.9349987003247366,0.6430862427851647,0.013705654182970123
13.25,0.935116419247349,0.6429847171020443,0.013639672036680579
13.3,0.9352358439014985,0.6428852190741197,0.013573316767186134
13.350000000000001,0.9353569403525157,0.6427877858407464,0.013506599867061363
13.4,0.935479674115708,0.6426924537019276,0.013439533193110748
13.450000000000001,0.9356040101691985,0.6425992581168953,0.013372128959878085
13.5,0.9357299129666696,0.6425082337028727,0.013304399732831085
13.55,0.9358573464500125,0.6424194142340002,0.013236358421227607
13.600000000000001,0.9359862740618804,0.6423328326404165,0.013168018270670314
13.65,0.9361166587581486,0.6422485210074791,0.013099392855356702
13.700000000000001,0.9362484630202798,0.6421665105751168,0.013030496070031636
13.75,0.9363816488675969,0.6420868317373053,0.01296134212164995
13.8,0.9365161778694644,0.6420095140416558,0.012891945520756664
13.850000000000001,0.9366520111573794,0.6419345861891119,0.012822321072592775
13.9,0.9367891094369736,0.6418620760337475,0.012752483867934655
13.950000000000001,0.9369274329999294,0.6417920105826616,0.012682449273675393
14,0.9370669417354257,0.6417244159959621,0.012612232923473597
14.05,0.9372075951429788,0.641659317586838,0.012541850706948158
14.100000000000001,0.9373493523432626,0.6415967398217374,0.012471318760229366
14.15,0.9374921720895415,0.6415367063206017,0.012400653455718875
14.200000000000001,0.9376360127795728,0.641479239857191,0.012329871391197135
14.25,0.9377808324669631,0.6414243623594977,0.012258989379108985
14.3,0.9379265888725231,0.6413720949102355,0.012188024435597324
14.350000000000001,0.9380732393955665,0.6413224577474133,0.01211699376934177
14.4,0.9382207411251421,0.64127547026499,0.012045914770222037
14.450000000000001,0.9383690508512044,0.6412311510136154,0.01197480499781636
14.5,0.9385181250757209,0.6411895177014543,0.011903682169745054
14.55,0.9386679200237228,0.6411505871951005,0.011832564149869518
14.600000000000001,0.9388183916542991,0.64111437552058,0.011761468936357086
