time,e,omega,d
0,0.942,0.6482848842903546,0.02633076200788132
0.05,0.9420216303982754,0.6483844590391299,0.02624514892204841
0.1,0.9420415875839067,0.6484852736956679,0.026160344099893727
0.15000000000000002,0.9420598492824743,0.6485872422091564,0.026076347035232185
0.2,0.9420763971763578,0.6486902882995387,0.025993156867484084
0.25,0.9420912082470428,0.6487943091473343,0.025910771969220474
0.30000000000000004,0.9421042656264057,0.6488992187547187,0.025829190330812567
0.35000000000000003,0.9421155530206292,0.6490049265522638,0.02574840943478944
0.4,0.9421250557013596,0.6491113410444509,0.025668426276587192
0.45,0.9421327605136728,0.6492183698671555,0.025589237376197786
0.5,0.9421386558973482,0.6493259198717228,0.0255108387871325
0.55,0.9421427319043706,0.6494338972023732,0.025433226106497165
0.6000000000000001,0.9421449802153237,0.649542207375084,0.02535639448558631
0.65,0.9421453941544388,0.6496507553573331,0.025280338641002424
0.7000000000000001,0.9421439687032686,0.6497594456486604,0.02520505286626012
0.75,0.9421407005129581,0.6498681823619863,0.025130531043835537
0.8,0.942135587915081,0.6499768693056315,0.025056766657620244
0.8500000000000001,0.9421286309310144,0.6500854100659813,0.024983752805738436
0.9,0.9421198312798231,0.6501937080907354,0.02491148221368556
0.9500000000000001,0.9421091923846283,0.6503016667726828,0.02483994724774623
1,0.9420967193774331,0.6504091895339459,0.024769139928649063
1.05,0.9420824191023839,0.6505161799106309,0.024699051945415954
1.1,0.9420663001174413,0.6506225416378253,0.02462967466936349
1.1500000000000001,0.9420483726944434,0.6507281787348829,0.024560999168214324
1.2000000000000002,0.942028648817537,0.6508329955909323,0.02449301622027678
1.25,0.9420071421799614,0.6509368970505522,0.024425716328651436
1.3,0.9419838681791679,0.6510397884995462,0.02435908973542419
1.35,0.9419588439102576,0.6511415759507593,0.024293126435805962
1.4000000000000001,0.9419320881577267,0.6512421661298718,0.024227816192180326
1.4500000000000002,0.9419036213855047,0.651341466561107,0.02416314854802132
1.5,0.9418734657252791,0.6514393856527908,0.024099112841644975
1.55,0.9418416449630955,0.6515358327826976,0.02403569821975935
1.6,0.9418081845242279,0.6516307183831203,0.023972893650779547
1.6500000000000001,0.9417731114563157,0.6517239540255959,0.023910687937875503
1.7000000000000002,0.9417364544107648,0.6518154525052241,0.02384906973172226
1.75,0.9416982436224124,0.6519051279245099,0.023788027542924178
1.8,0.941658510887458,0.6519928957766649,0.0237275497540864
1.85,0.9416172895396653,0.6520786730282947,0.02366762463150901
1.9000000000000001,0.9415746144248396,0.6521623782014082,0.023608240336481293
1.9500000000000002,0.9415305218735924,0.6522439314546732,0.02354938493615581
2,0.9414850496724009,0.6523232546638486,0.023491046413984116
2.0500000000000003,0.9414382370329787,0.6524002715013174,0.023433212679698417
2.1,0.9413901245599713,0.6524749075146491,0.02337587157882565
2.15,0.9413407542169961,0.6525470902041094,0.02331901090172304
2.2,0.9412901692910459,0.6526167490990431,0.023262618392126583
2.25,0.9412384143552808,0.6526838158330477,0.023206681755206335
2.3000000000000003,0.9411855352302327,0.6527482242178545,0.02315118866512499
2.35,0.941131578943452,0.6528099103158367,0.02309612677209864
2.4000000000000004,0.9410765936162117,0.6528688123636357,0.02304148370979679
2.45,0.9410206286554227,0.6529248713081756,0.022987247097841015
2.5,0.9409637344433249,0.6529780303699422,0.022933404552390003
2.5500000000000003,0.9409059623941519,0.6530282352932184,0.022879943688731127
2.6,0.94084736491302,0.6530754344269087,0.022826852126102436
2.6500000000000004,0.9407879953392048,0.6531195787720534,0.022774117491945658
2.7,0.940727907895793,0.6531606220418741,0.022721727425675367
2.75,0.9406671576381729,0.6531985207200213,0.022669669582018288
2.8000000000000003,0.9406058004013548,0.6532332341166018,0.022617931633951965
2.85,0.9405438927461505,0.6532647244218783,0.02256650127526935
2.9000000000000004,0.9404814919042787,0.6532929567575464,0.02251536622279252
2.95,0.940418655722452,0.6533178992254889,0.02246451421826199
3,0.9403554426055084,0.6533395229539032,0.022413933029929653
3.0500000000000003,0.9402919114586514,0.653357802140699,0.022363610453884984
3.1,0.9402281216288643,0.6533727140940636,0.022313534315145617
3.1500000000000004,0.9401641328538819,0.6533842393588329,0.022263692469513943
3.2,0.9401000051784233,0.653392361530678,0.022214072802193764
3.25,0.9400357989099235,0.653397067418599,0.022164663229331676
3.3000000000000003,0.9399715745625509,0.6533983471167587,0.02211545169900584
3.35,0.9399073927827297,0.6533961937819075,0.022066426189071182
3.4000000000000004,0.9398433143160714,0.6533906043123842,0.022017574714009377
3.45,0.9397793999045848,0.6533815786434112,0.021968885319225025
3.5,0.9397157102439366,0.653369120031608,0.0219203460831171
3.5500000000000003,0.9396523059202916,0.6533532350871345,0.02187194511812148
3.6,0.939589247339192,0.6533339338524248,0.021823670572268757
3.6500000000000004,0.9395265946779042,0.6533112295728815,0.021775510627587594
3.7,0.9394644078160663,0.6532851388355988,0.021727453502239095
3.75,0.9394027462707828,0.6532556816111322,0.02167948745233613
3.8000000000000003,0.9393416691644114,0.6532228809917359,0.02163160077037383
3.85,0.9392812350785882,0.6531867638495361,0.0215837817948836
3.9000000000000004,0.9392215020772424,0.6531473600786254,0.021536018905034576
3.95,0.9391625276188954,0.6531047028543037,0.02148830052527025
4,0.9391043684924368,0.6530588286297694,0.021440615128700193
4.05,0.9390470807377778,0.6530097771744329,0.021392951241860605
4.1000000000000005,0.9389907196406218,0.6529575913183916,0.021345297444707617
4.15,0.9389353396449563,0.6529023170508481,0.021297642376710616
4.2,0.9388809942861106,0.6528440035243998,0.02124997474233099
4.25,0.9388277362056292,0.652782702775393,0.02120228331099357
4.3,0.9387756169051665,0.6527184702955308,0.021154556936706762
4.3500000000000005,0.9387246868964281,0.6526513642897661,0.021106784550207185
4.4,0.9386749955769298,0.6525814458832709,0.021058955170321827
4.45,0.9386265911717162,0.6525087790807892,0.02101105791191583
4.5,0.9385795206899193,0.6524334306834558,0.0209630819934008
4.55,0.938533829876914,0.6523554702220484,0.020915016745118756
4.6000000000000005,0.938489563167831,0.6522749698871131,0.020866851618308434
4.65,0.9384467636426529,0.6521920044558333,0.020818576194611492
4.7,0.9384054729829445,0.6521066512157131,0.020770180196109905
4.75,0.938365731430264,0.652018989885214,0.02072165349588402
4.800000000000001,0.9383275777463019,0.6519291025314757,0.020672986129076292
4.8500000000000005,0.9382910491747928,0.651837073485254,0.020624168304442775
4.9,0.9382561814052371,0.6517429892532179,0.020575190416371535
4.95,0.9382230085384721,0.6516469384277543,0.020526043057344075
5,0.9381915630541208,0.651549011594425,0.020476717030813045
5.050000000000001,0.9381618757799505,0.6514493012372355,0.020427203364466687
5.1000000000000005,0.9381339758631624,0.6513479016418675,0.0203774933238478
5.15,0.9381078907436349,0.6512449087970367,0.020327578426292427
5.2,0.9380836461291369,0.651140420294134,0.02027745045515105
5.25,0.938061265973226,0.6510345352286656,0.020227101473784488
5.300000000000001,0.9380407724523271,0.6509273540875259,0.02017652384157308
5.3500000000000005,0.9380221859486747,0.6508189786516596,0.02012571022767751
5.4,0.9380055250337274,0.6507095118918382,0.02007465362580605
5.45,0.9379908064525675,0.6505990578588665,0.0200233473696893
5.5,0.9379780451112614,0.650487721576995,0.019971785147990407
5.550000000000001,0.9379672540660087,0.6503756089353893,0.019919961019381247
5.6000000000000005,0.9379584445142425,0.6502628265803583,0.01986786942737077
5.65,0.9379516257880952,0.6501494818098332,0.019815505214644737
5.7,0.9379468053489397,0.6500356824604209,0.01976286363824186
5.75,0.9379439887845221,0.6499215367999879,0.019709940383695987
5.800000000000001,0.9379431798078315,0.6498071534228254,0.019656731578602177
5.8500000000000005,0.9379443802577254,0.64969264113135,0.019603233807609633
5.9,0.9379475901017227,0.649578108836004,0.01954944412467195
5.95,0.9379528074403417,0.6494636654493685,0.019495360065722004
6,0.9379600285132069,0.6493494197759845,0.01944097966147906
6.050000000000001,0.9379692477070227,0.6492354804072313,0.01938630144912049
6.1000000000000005,0.9379804575653348,0.6491219556157459,0.019331324483508515
6.15,0.9379936487997513,0.6490089532519052,0.019276048347685787
6.2,0.9380088103027032,0.648896580644005,0.019220473162356068
6.25,0.9380259291623501,0.6487849444924555,0.019164599595418524
6.300000000000001,0.9380449906786588,0.6486741507707288,0.01910842887009912
6.3500000000000005,0.9380659783810609,0.6485643046265909,0.0190519627723787
6.4,0.9380888740476165,0.6484555102846344,0.018995203657566826
6.45,0.93811365772562,0.6483478709503564,0.018938154455964636
6.5,0.9381403077536055,0.6482414887158567,0.018880818677581578
6.550000000000001,0.938168800784711,0.6481364644672305,0.018823200415873213
6.6000000000000005,0.938199111810524,0.6480328977966432,0.018765304350396583
6.65,0.9382312141893115,0.6479308869048932,0.018707135748752383
6.7,0.9382650796715454,0.6478305285208346,0.018648700466982634
6.75,0.938300678427889,0.647731917817266,0.018590004949095264
6.800000000000001,0.9383379790794906,0.6476351483246594,0.018531056225625318
6.8500000000000005,0.9383769487284614,0.6475403118505306,0.018471861910934896
6.9,0.9384175529897865,0.647447498399791,0.018412430199359633
6.95,0.9384597560238455,0.6473567960978885,0.01835276986034445
7,0.9385035205692347,0.6472682911181217,0.01829289023242996
7.050000000000001,0.9385488079786116,0.6471820676055858,0.01823280121590614
7.1000000000000005,0.9385955782538817,0.6470982076074884,0.01817251326447356
7.15,0.9386437900474897,0.6470167909419385,0.01811203739040885
7.2,0.9386934007892003,0.6469378952853788,0.01805138511658427
7.25,0.9387443666690842,0.6468615960190984,0.017990568487570188
7.300000000000001,0.9387966426581853,0.6467879661372804,0.017929600064247278
7.3500000000000005,0.9388501826378647,0.6467170763693715,0.017868492871724553
7.4,0.9389049392056644,0.6466489946369657,0.017807260484147096
7.45,0.938960863980491,0.6465837865260304,0.01774591689636083
7.5,0.939017907541689,0.6465215150413494,0.017684476550040375
7.550000000000001,0.9390760194645833,0.6464622405391156,0.017622954318539823
7.6000000000000005,0.939135148370896,0.6464060206945257,0.017561365484443214
7.65,0.9391952419720195,0.6463529104564574,0.017499725719554767
7.7,0.9392562471127338,0.6463029620041594,0.01743805106401139
7.75,0.9393181098153888,0.6462562247062738,0.01737635790455261
7.800000000000001,0.9393807753245491,0.6462127450822094,0.01731466295198374
7.8500000000000005,0.9394441881335385,0.6461725666842609,0.017252983225381414
7.9,0.9395082920786649,0.6461357302657579,0.017191336008306152
7.95,0.9395730303540695,0.6461022736298196,0.01712973883668533
8,0.9396383455479324,0.6460722315599912,0.017068209477710726
8.05,0.9397041797324671,0.6460456360213169,0.017006765887640704
8.1,0.9397704743996159,0.6460225155306509,0.016945426226346746
8.15,0.9398371706379414,0.6460028957976648,0.016884208782490164
8.200000000000001,0.9399042091274346,0.6459867994583475,0.01682313196582882
8.25,0.9399715301848482,0.6459742460372486,0.016762214280682298
8.3,0.9400390738086899,0.6459652518649055,0.01670147429751994
8.35,0.9401067797467122,0.6459598302817571,0.016640930621763906
8.4,0.9401745875306939,0.6459579914985101,0.016580601868293795
8.450000000000001,0.9402424365207517,0.6459597425447985,0.016520506634150296
8.5,0.9403102659646752,0.645965087502491,0.016460663472668804
8.55,0.9403780150221728,0.6459740268690853,0.0164010908561731
8.6,0.9404456228481894,0.6459865582536839,0.01634180715485791
8.65,0.9405130286248158,0.6460026761169636,0.016282830607698768
8.700000000000001,0.9405801716107994,0.646022371754027,0.01622417929404413
8.75,0.9406469911970935,0.646045633233708,0.016165871100222762
8.8,0.9407134269447888,0.6460724456246418,0.016107923706753034
8.85,0.9407794186389228,0.6461027908749378,0.016050354553758226
8.9,0.9408449063394636,0.6461366477813308,0.01599318081217224
8.950000000000001,0.9409098304075038,0.6461739922401586,0.015936419379177804
9,0.9409741316185113,0.6462147966415789,0.015880086794532487
9.05,0.941037751147708,0.6462590305784973,0.01582419927790304
9.1,0.9411006306386331,0.6463066606084359,0.015768772683220647
9.15,0.9411627122551244,0.6463576502579753,0.015713822473317842
9.200000000000001,0.9412239387455917,0.6464119599876216,0.015659363687293475
9.25,0.9412842534495862,0.6464695474267207,0.015605410948738015
9.3,0.9413436003689876,0.6465303672798801,0.015551978427952855
9.35,0.9414019242238496,0.6465943713188369,0.015499079816601214
9.4,0.9414591704439419,0.6466615086365126,0.015446728345642029
9.450000000000001,0.9415152853680643,0.6467317251090141,0.015394936668845146
9.5,0.9415702161302802,0.6468049640756965,0.015343716952969794
9.55,0.9416239107630635,0.6468811661378948,0.015293080823195382
9.600000000000001,0.9416763182495679,0.6469602691855384,0.01524303934505252
9.65,0.9417273885940025,0.6470422083907242,0.015193602997958756
9.700000000000001,0.9417770727958152,0.6471269164380234,0.015144781703241699
9.75,0.9418253229354169,0.6472143234644301,0.015096584789374545
9.8,0.9418720922323411,0.6473043570755552,0.015049020974168199
9.850000000000001,0.9419173350015458,0.6473969425880376,0.015002098402284112
9.9,0.9419610069314387,0.647492002594358,0.014955824514679111
9.950000000000001,0.9420030648734317,0.647589457572799,0.014910206176763603
10,0.942043466975431,0.6476892257368231,0.014865249623657406
10.05,0.9420821727314942,0.6477912230835563,0.014820960452040611
10.100000000000001,0.9421191430147309,0.6478953634747174,0.014777343621576174
10.15,0.942154340116707,0.6480015587034712,0.014734403453529285
10.200000000000001,0.942187727786178,0.6481097185629641,0.01469214363053226
10.25,0.942219271266935,0.6482197509166497,0.01465056719753171
10.3,0.9422489373347219,0.648331561770409,0.014609676563903266
10.350000000000001,0.9422766943331823,0.6484450553464041,0.014569473506712198
10.4,0.9423025122087956,0.6485601341586262,0.014529959175097255
10.450000000000001,0.9423263625447569,0.6486766990900906,0.014491134095751845
10.5,0.9423482185937575,0.6487946494716299,0.0144529981794736
10.55,0.9423680553096204,0.648913883162237,0.014415550728750524
10.600000000000001,0.9423858493767856,0.649034296628205,0.014378790446055688
10.65,0.9424015792423459,0.6491557850339739,0.01434271544419907
10.700000000000001,0.9424152251417109,0.649278242321072,0.014307323256219326
10.75,0.9424267691248903,0.6494015612929931,0.014272610846620303
10.8,0.9424361950827691,0.6495256337051126,0.014238574623839267
10.850000000000001,0.9424434887707321,0.6496503503526649,0.014205210453182397
10.9,0.9424486378311674,0.6497756011609919,0.014172513670664844
10.950000000000001,0.9424516318143391,0.6499012752758507,0.01414047909734018
11,0.9424524621970882,0.650027261152696,0.014109101054003592
11.05,0.9424511224015821,0.650153446652952,0.014078373377370506
11.100000000000001,0.9424476078112084,0.6502797191366457,0.014048289436106023
11.15,0.9424419157846519,0.6504059655536901,0.014018842146912944
11.200000000000001,0.9424340456701035,0.6505320725479402,0.013990023993158079
11.25,0.9424239988152406,0.6506579265465402,0.013961827041148539
11.3,0.9424117785764817,0.6507834138553595,0.013934242957650363
11.350000000000001,0.94239739032708,0.6509084207593472,0.013907263028429684
11.4,0.9423808414627572,0.6510328336197317,0.013880878176326801
11.450000000000001,0.942362141405579,0.651156538972934,0.013855078979690552
11.5,0.9423413016060316,0.6512794236287954,0.01382985569068203
11.55,0.9423183355429521,0.6514013747668322,0.013805198253161897
11.600000000000001,0.9422932587219051,0.6515222800394128,0.013781096321773807
11.65,0.9422660886712897,0.6516420276701038,0.013757539279996735
11.700000000000001,0.9422368449367696,0.6517605065499327,0.013734516257638895
11.75,0.9422055490729356,0.6518776063463602,0.013712016150425022
11.8,0.9421722246337607,0.6519932175959344,0.01369002763637441
11.850000000000001,0.9421368971608672,0.6521072318027508,0.013668539192900843
11.9,0.9420995941694427,0.6522195415413419,0.013647539114412495
11.950000000000001,0.9420603451322423,0.6523300405554878,0.01362701552878906
12,0.9420191814613301,0.6524386238580822,0.013606956413626652
12.05,0.9419761364880695,0.6525451878296546,0.013587349611863806
12.100000000000001,0.9419312454412957,0.6526496303141587,0.013568182846452054
12.15,0.9418845454222943,0.6527518507210989,0.013549443735591516
12.200000000000001,0.9418360753785026,0.6528517501220229,0.013531119806535936
12.25,0.9417858760749719,0.6529492313475035,0.013513198508939485
12.3,0.9417339900637024,0.6530441990836522,0.013495667227581814
12.350000000000001,0.9416804616508926,0.6531365599679403,0.013478513294418444
12.4,0.9416253368621117,0.6532262226842441,0.01346172399993524
12.450000000000001,0.9415686634054103,0.6533130980570366,0.013445286603789195
12.5,0.9415104906336909,0.6533970991416407,0.013429188344402872
12.55,0.9414508695001411,0.653478141325103,0.013413416449047933
12.600000000000001,0.9413898525179255,0.6535561424105366,0.01339795814157307
12.65,0.9413274937157974,0.6536310227059325,0.013382800649935628
12.700000000000001,0.9412638485899614,0.653702705115866,0.01336793121346376
12.75,0.9411989740554759,0.6537711152280978,0.013353337088969804
12.8,0.9411329283951634,0.6538361813998294,0.013339005556201615
12.850000000000001,0.9410657712073481,0.6538978348415275,0.013324923922567906
12.9,0.9409975633528519,0.6539560096968912,0.013311079526945683
12.950000000000001,0.9409283668969014,0.6540106431269157,0.01329745974320191
13,0.9408582450518344,0.6540616753874583,0.013284051982746525
13.05,0.9407872621455253,0.6541090499965976,0.013270843697738528
13.100000000000001,0.9407154834875316,0.6541527135851046,0.013257822379590304
13.15,0.9406429753521475,0.6541926161000599,0.013244975561141488
13.200000000000001,0.9405698049291747,0.6542287109183592,0.01323229081747264
13.25,0.9404960401924762,0.6542609546533423,0.0132197557622713
13.3,0.940421750001993,0.6542893079133087,0.013207358055387183
13.350000000000001,0.940347003840011,0.654313734604955,0.013195085393216599
13.4,0.9402718718200094,0.6543342022715481,0.013182925509512696
13.450000000000001,0.9401964246199866,0.6543506821712217,0.013170866173980682
13.5,0.9401207334159246,0.6543631494119263,0.01315889519060212
13.55,0.9400448697787468,0.6543715827364666,0.013147000392871939
13.600000000000001,0.9399689056216803,0.6543759647226,0.013135169642041977
13.65,0.9398929131326876,0.6543762818752369,0.01312339082477545
13.700000000000001,0.9398169646822302,0.6543725243667224,0.013111651848130984
13.75,0.9397411327876859,0.65436468685633,0.01309994064100345
13.8,0.9396654899831591,0.6543527676534175,0.013088245147038107
13.850000000000001,0.9395901087691227,0.6543367690638373,0.013076553322528281
13.9,0.9395150615354471,0.6543166974345267,0.013064853134063517
13.950000000000001,0.9394404204749612,0.6542925632547043,0.013053132556023262
14,0.9393662575235002,0.6542643808844145,0.013041379567815951
14.05,0.9392926442759052,0.654232168727296,0.013029582151696965
14.100000000000001,0.9392196519067796,0.6541959492859885,0.013017728291279741
14.15,0.939147351129118,0.6541557488496218,0.013005805969952091
14.200000000000001,0.9390758120200335,0.6541115982965402,0.012993803170057347
14.25,0.9390051040435721,0.6540635321795707,0.012981707873624663
14.3,0.9389352959449487,0.6540115890437912,0.012969508061496316
14.350000000000001,0.9388664556717664,0.6539558114258761,0.012957191714438938
14.4,0.9387986502770117,0.6538962459041242,0.01294474681492946
14.450000000000001,0.9387319459108382,0.6538329427895775,0.012932161349172433
14.5,0.9386664077140202,0.6537659562482558,0.012919423309717681
14.55,0.9386020997360116,0.6536953443082483,0.01290652069924261
14.600000000000001,0.9385390849513177,0.653621168519825,0.01289344153389548
