time,e,omega,d
0,0.942,0.6482848842903546,0.02633076200788132
0.05,0.9420221685322073,0.6483219391624873,0.026244999215116478
0.1,0.9420437476421812,0.6483594280328099,0.02615974523429278
0.15000000000000002,0.9420647294709105,0.6483973402962526,0.026074999707348306
0.2,0.9420851072859103,0.6484356665536857,0.02599076226819617
0.25,0.9421048722827021,0.648474394134117,0.025907032367809637
0.30000000000000004,0.9421240174787655,0.6485135124323218,0.02582380946908122
0.35000000000000003,0.9421425357477723,0.648553010264936,0.025741092956218233
0.4,0.9421604201547394,0.6485928763125324,0.025658882148688448
0.45,0.9421776639571385,0.6486330991224735,0.025577176301609092
0.5,0.9421942606076608,0.6486736671125599,0.02549597460577983
0.55,0.9422102037566507,0.6487145685743979,0.025415276187808183
0.6000000000000001,0.9422254872419303,0.6487557916843848,0.025335080114273243
0.65,0.9422401051314002,0.6487973244824138,0.025255385379015515
0.7000000000000001,0.9422540516812491,0.6488391549032411,0.025176190917570118
0.75,0.9422673213545562,0.6488812707693179,0.025097495602111993
0.8,0.9422799088248747,0.6489236597936465,0.025019298241301884
0.8500000000000001,0.9422918089770056,0.6489663095842745,0.024941597581045204
0.9,0.9423030169090513,0.6490092076479769,0.02486439230484872
0.9500000000000001,0.9423135279344198,0.6490523413939778,0.024787681034206012
1,0.9423233375837677,0.6490956981377078,0.02471146232901338
1.05,0.9423324416068807,0.649139265104598,0.02463573468801599
1.1,0.9423408359744345,0.6491830294337831,0.024560496549267386
1.1500000000000001,0.9423485168799166,0.6492269781823203,0.024485746290677714
1.2000000000000002,0.9423554807411817,0.6492710983288141,0.02441148223051315
1.25,0.9423617242020547,0.6493153767772943,0.02433770262794864
1.3,0.9423672441339482,0.6493598003613021,0.024264405683669343
1.35,0.9423720376373403,0.6494043558478553,0.02419158954047961
1.4000000000000001,0.9423761020431936,0.6494490299414649,0.024119252283939636
1.4500000000000002,0.9423794349143081,0.6494938092881839,0.02404739194302708
1.5,0.9423820340466043,0.6495386804796833,0.023976006490822196
1.55,0.9423838974703341,0.6495836300573548,0.02390509384521579
1.6,0.9423850234512225,0.6496286445164378,0.023834651869639067
1.6500000000000001,0.9423854104915341,0.6496737103101714,0.023764678373814695
1.7000000000000002,0.9423850573310683,0.6497188138539682,0.02369517111452807
1.75,0.9423839629480801,0.6497639415296103,0.02362612779641807
1.8,0.9423821265601264,0.649809079689466,0.023557546072786383
1.85,0.9423795476248362,0.6498542146607258,0.023489423546424512
1.9000000000000001,0.942376225840606,0.6498993327496568,0.023421757770457692
1.9500000000000002,0.9423721611472168,0.6499444202458734,0.023354546249204675
2,0.9423673537263757,0.6499894634266258,0.02328778643905262
2.0500000000000003,0.9423618040021781,0.6500344485611009,0.02322147574934617
2.1,0.9423555126414913,0.650079361914739,0.023155611543289788
2.15,0.9423484805542606,0.6501241897535609,0.02309019113886247
2.2,0.9423407088937331,0.6501689183485071,0.023025211809743946
2.25,0.9423321990566034,0.6502135339797873,0.022960670786251483
2.3000000000000003,0.9423229526830783,0.6502580229412375,0.02289656525628635
2.35,0.9423129716568592,0.6503023715446848,0.022832892366289072
2.4000000000000004,0.9423022581050442,0.6503465661243194,0.022769649222202593
2.45,0.942290814397947,0.6503905930410695,0.022706832890442456
2.5,0.9422786431488351,0.6504344386869818,0.022644440398873086
2.5500000000000003,0.9422657472135827,0.650478089489603,0.022582468737789338
2.6,0.9422521296902434,0.6505215319163626,0.022520914860902422
2.6500000000000004,0.9422377939185376,0.6505647524789564,0.02245977568632933
2.7,0.9422227434792568,0.6506077377377263,0.02239904809758498
2.75,0.9422069821935846,0.6506504743060401,0.02233872894457611
2.8000000000000003,0.9421905141223327,0.650692948854664,0.022278815044596237
2.85,0.9421733435650933,0.6507351481161326,0.022219303183320733
2.9000000000000004,0.9421554750593079,0.6507770588891097,0.022160190115801337
2.95,0.9421369133792497,0.6508186680427418,0.022101472567459188
3,0.9421176635349234,0.6508599625210022,0.022043147235075715
3.0500000000000003,0.9420977307708801,0.6509009293470243,0.021985210787780547
3.1,0.9420771205649469,0.6509415556274215,0.021927659868035753
3.1500000000000004,0.9420558386268725,0.6509818285565959,0.021870491092615633
3.2,0.9420338908968892,0.6510217354210288,0.021813701053581415
3.25,0.9420112835441893,0.6510612636035576,0.021757286319250137
3.3000000000000003,0.9419880229653185,0.6511004005876336,0.02170124343515705
3.35,0.9419641157824844,0.6511391339615608,0.021645568925010905
3.4000000000000004,0.9419395688417823,0.6511774514227141,0.021590259291641493
3.45,0.9419143892113371,0.6512153407817367,0.02153531101793885
3.5,0.9418885841793615,0.651252789966712,0.02148072056778354
3.5500000000000003,0.941862161252133,0.6512897870273131,0.021426484386967454
3.6,0.9418351281518861,0.6513263201389246,0.021372598904104617
3.6500000000000004,0.941807492814625,0.651362377606737,0.02131906053153149
3.7,0.9417792633878528,0.6513979478698134,0.02126586566619626
3.75,0.9417504482282208,0.6514330195051238,0.0212130106905367
3.8000000000000003,0.9417210558990967,0.6514675812315495,0.021160491973346206
3.85,0.9416910951680528,0.6515016219138523,0.02110830587062744
3.9000000000000004,0.9416605750042752,0.6515351305666113,0.02105644872643351
3.95,0.9416295045758939,0.6515680963581212,0.021004916873696003
4,0.9415978932472349,0.6516005086142548,0.02095370663503978
4.05,0.9415657505759953,0.6516323568222854,0.0209028143235842
4.1000000000000005,0.9415330863103417,0.6516636306346695,0.02085223624373042
4.15,0.9414999103859318,0.6516943198727869,0.02080196869193467
4.2,0.941466232922863,0.651724414530638,0.0207520079574672
4.25,0.9414320642225457,0.6517539047784957,0.020702350323156767
4.3,0.941397414764503,0.6517827809665115,0.020652992066120496
4.3500000000000005,0.9413622952030999,0.6518110336282743,0.020603929458479043
4.4,0.9413267163641991,0.6518386534843186,0.020555158768056886
4.45,0.9412906892417487,0.6518656314455836,0.020506676259067786
4.5,0.9412542249943001,0.6518919586168191,0.0204584781927853
4.55,0.9412173349414565,0.6519176262999392,0.02041056082819841
4.6000000000000005,0.9411800305602569,0.651942625997319,0.02036292042265224
4.65,0.9411423234814927,0.6519669494150375,0.020315553232473957
4.7,0.9411042254859608,0.6519905884660601,0.020268455513583916
4.75,0.941065748500653,0.6520135352733638,0.020221623522092166
4.800000000000001,0.9410269045948835,0.6520357821730004,0.02017505351488047
4.8500000000000005,0.9409877059763557,0.6520573217170985,0.020128741750169956
4.9,0.940948164987171,0.6520781466768011,0.020082684488074664
4.95,0.940908294099778,0.6520982500451391,0.020036877991141126
5,0.9408681059128662,0.6521176250398376,0.01999131852487428
5.050000000000001,0.940827613147205,0.6521362651060552,0.01994600235824998
5.1000000000000005,0.9407868286414287,0.6521541639190536,0.01990092576421435
5.15,0.9407457653477703,0.6521713153867971,0.019856085020170368
5.2,0.9407044363277439,0.6521877136524796,0.01981147640845193
5.25,0.9406628547477798,0.6522033530969801,0.01976709621678587
5.300000000000001,0.9406210338748112,0.6522182283412407,0.01972294073874221
5.3500000000000005,0.940578987071816,0.6522323342485716,0.019679006274173117
5.4,0.9405367277933151,0.6522456659268776,0.019635289129640944
5.45,0.9404942695808287,0.6522582187308059,0.019591785618835855
5.5,0.9404516260582908,0.6522699882638155,0.019548492062983442
5.550000000000001,0.9404088109274278,0.6522809703801637,0.019505404791242832
5.6000000000000005,0.9403658379630978,0.6522911611868125,0.019462520141095833
5.65,0.9403227210085967,0.6523005570452503,0.019419834458727504
5.7,0.9402794739709307,0.6523091545732287,0.01937734409939886
5.75,0.9402361108160572,0.6523169506464156,0.019335045427812055
5.800000000000001,0.940192645564097,0.6523239423999592,0.01929293481846878
5.8500000000000005,0.9401490922845189,0.6523301272299652,0.019251008656022292
5.9,0.940105465091299,0.6523355027948852,0.01920926333562375
5.95,0.9400617781380558,0.6523400670168141,0.01916769526326341
6,0.9400180456131652,0.652343818082698,0.019126300856107274
6.050000000000001,0.9399742817348541,0.6523467544454483,0.01908507654282978
6.1000000000000005,0.9399305007462784,0.6523488748249643,0.019044018763943175
6.15,0.9398867169105842,0.6523501782090608,0.019003123972124145
6.2,0.939842944505956,0.6523506638543027,0.018962388632538376
6.25,0.939799197820653,0.6523503312867418,0.018921809223163576
6.300000000000001,0.9397554911480376,0.6523491803025592,0.018881382235111693
6.3500000000000005,0.9397118387815943,0.6523472109686096,0.01884110417295084
6.4,0.939668255009945,0.6523444236228683,0.018800971555027603
6.45,0.9396247541118613,0.6523408188747795,0.018760980913790377
6.5,0.9395813503512744,0.6523363976055063,0.01872112879611427
6.550000000000001,0.9395380579722876,0.6523311609680801,0.018681411763628235
6.6000000000000005,0.9394948911941905,0.6523251103874503,0.018641826393045065
6.65,0.9394518642064805,0.6523182475604339,0.018602369276494723
6.7,0.9394089911638894,0.6523105744555636,0.018563037021861736
6.75,0.9393662861814208,0.6523020933128351,0.018523826253127214
6.800000000000001,0.9393237633293989,0.652292806643352,0.018484733610715894
6.8500000000000005,0.9392814366285309,0.6522827172288693,0.018445755751849032
6.9,0.9392393200449853,0.6522718281212351,0.01840688935090349
6.95,0.9391974274854876,0.6522601426417294,0.01836813109977757
7,0.9391557727924364,0.6522476643803009,0.018329477708264225
7.050000000000001,0.9391143697390415,0.6522343971947014,0.018290925904431984
7.1000000000000005,0.9390732320244859,0.6522203452095182,0.01825247243501424
7.15,0.9390323732691136,0.6522055128151035,0.018214114065807183
7.2,0.9389918070096465,0.6521899046664023,0.018175847582077
7.25,0.93895154669443,0.6521735256816776,0.0181376697889766
7.300000000000001,0.9389116056787126,0.652156381041136,0.01809957751197241
7.3500000000000005,0.938871997219958,0.6521384761854488,0.018061567597281492
7.4,0.938832734473194,0.6521198168141744,0.01802363691231945
7.45,0.9387938304864,0.6521004088840799,0.017985782346159346
7.5,0.9387552981959327,0.6520802586073622,0.017948000810002043
7.550000000000001,0.9387171504219967,0.6520593724497693,0.01791028923765815
7.6000000000000005,0.938679399864155,0.6520377571286239,0.01787264458604189
7.65,0.9386420590968894,0.6520154196107474,0.01783506383567711
7.7,0.9386051405652039,0.6519923671102881,0.01779754399121559
7.75,0.9385686565802812,0.6519686070864513,0.017760082081967866
7.800000000000001,0.9385326193151877,0.6519441472411347,0.017722675162446657
7.8500000000000005,0.9384970408006323,0.6519189955164676,0.017685320312923095
7.9,0.9384619329207794,0.6518931600922578,0.0176480146399957
7.95,0.938427307409118,0.6518666493833447,0.01761075527717224
8,0.9383931758443884,0.6518394720368609,0.017573539385464566
8.05,0.9383595496465689,0.6518116369294031,0.017536364153996196
8.1,0.9383264400729223,0.6517831531641135,0.017499226800622807
8.15,0.9382938582141059,0.6517540300676731,0.017462124572565407
8.200000000000001,0.9382618149903451,0.651724277187208,0.01742505474705624
8.25,0.9382303211476719,0.6516939042871109,0.017388014631997073
8.3,0.9381993872542308,0.6516629213457767,0.017351001566629873
8.35,0.938169023696653,0.6516313385522581,0.017314012922219586
8.4,0.9381392406764995,0.6515991663028371,0.017277046102748734
8.450000000000001,0.9381100482067753,0.6515664151975195,0.017240098545623653
8.5,0.9380814561085162,0.6515330960364489,0.017203167722392016
8.55,0.9380534740074482,0.6514992198162474,0.01716625113947125
8.6,0.9380261113307207,0.6514647977262774,0.017129346338887623
8.65,0.9379993773037175,0.6514298411448349,0.017092450899025394
8.700000000000001,0.9379732809469419,0.6513943616352688,0.017055562435385804
8.75,0.937947831072981,0.6513583709420303,0.017018678601355263
8.8,0.9379230362835482,0.6513218809866572,0.01698179708898238
8.85,0.9378989049666054,0.65128490386369,0.0169449156297632
8.9,0.9378754452935655,0.6512474518365253,0.016908031995434166
8.950000000000001,0.937852665216576,0.6512095373332075,0.016871143998772174
9,0.9378305724658853,0.6511711729421593,0.01683424949440114
9.05,0.9378091745472921,0.6511323714078553,0.016797346379604432
9.1,0.9377884787396772,0.6510931456264387,0.016760432595142472
9.15,0.9377684920926209,0.6510535086412851,0.01672350612607486
9.200000000000001,0.9377492214241041,0.6510134736385126,0.016686565002586255
9.25,0.9377306733182961,0.6509730539424442,0.01664960730081528
9.3,0.9377128541234273,0.6509322630110204,0.016612631143685743
9.35,0.9376957699497489,0.6508911144311665,0.016575634701739266
9.4,0.9376794266675794,0.6508496219141173,0.016538616193968608
9.450000000000001,0.9376638299054385,0.6508077992906993,0.016501573888650825
9.5,0.9376489850482681,0.6507656605065733,0.01646450610417938
9.55,0.9376348972357423,0.6507232196174401,0.016427411209894383
9.600000000000001,0.9376215713606642,0.6506804907842116,0.016390287626910003
9.65,0.9376090120674521,0.6506374882681479,0.016353133828938243
9.700000000000001,0.9375972237507145,0.6505942264259634,0.016315948343108067
9.75,0.9375862105539123,0.6505507197049059,0.01627872975077897
9.8,0.9375759763681117,0.6505069826378067,0.01624147668834808
9.850000000000001,0.937566524830824,0.6504630298381079,0.01620418784804982
9.9,0.9375578593249363,0.6504188759948673,0.016166861978747067
9.950000000000001,0.9375499829777287,0.6503745358677417,0.01612949788671302
10,0.9375428986599824,0.650330024281954,0.016092094436402582
10.05,0.9375366089851748,0.6502853561232425,0.01605465055121244
10.100000000000001,0.9375311163087634,0.6502405463327979,0.016017165214228697
10.15,0.93752642272755915,0.6501956099021874,0.01597963746896119
10.200000000000001,0.9375225300791854,0.6501505618682691,0.015942066420063378
10.25,0.9375194399416269,0.6501054173080998,0.015904451234036887
10.3,0.937517153632865,0.6500601913338352,0.01586679113991962
10.350000000000001,0.9375156722106006,0.6500148990876288,0.015829085429956518
10.4,0.937514996472063,0.6499695557365269,0.015791333460251914
10.450000000000001,0.9375151269539062,0.6499241764673656,0.01575353465140251
10.5,0.9375160639321899,0.6498787764816693,0.01571568848910997
10.55,0.9375178074224471,0.6498333709905534,0.015677794524772172
10.600000000000001,0.9375203571798358,0.6497879752096337,0.015639852376052164
10.65,0.9375237126993762,0.6497426043539433,0.01560186172742378
10.700000000000001,0.9375278732162697,0.6496972736328595,0.015563822330693054
10.75,0.9375328377063042,0.6496519982450424,0.015525734005494484
10.8,0.9375386048863394,0.6496067933733876,0.015487596639761137
10.850000000000001,0.9375451732148758,0.6495616741799936,0.015449410190167807
10.9,0.9375525408927048,0.6495166558011465,0.015411174682546259
10.950000000000001,0.9375607058636386,0.6494717533423234,0.015372890212271664
11,0.9375696658153225,0.6494269818732168,0.015334556944619495
11.05,0.9375794181801239,0.6493823564227806,0.015296175115091857
11.100000000000001,0.9375899601361021,0.6493378919743009,0.015257745029712623
11.15,0.9376012886080538,0.6492936034604904,0.015219267065290476
11.200000000000001,0.9376134002686387,0.6492495057586121,0.015180741669649117
11.25,0.9376262915395782,0.6492056136856305,0.015142169361823906
11.3,0.9376399585929324,0.6491619419933926,0.015103550732224209
11.350000000000001,0.9376543973524495,0.6491185053638414,0.015064886442760776
11.4,0.9376696034949907,0.6490753184042616,0.01502617722693748
11.450000000000001,0.9376855724520279,0.6490323956425603,0.014987423889906771
11.5,0.9377022994112127,0.648989751522584,0.01494862730848828
11.55,0.9377197793180175,0.648947400399472,0.014909788431149951
11.600000000000001,0.9377380068774468,0.6489053565350491,0.014870908277951221
11.65,0.9377569765558181,0.6488636340932582,0.014831987940447678
11.700000000000001,0.9377766825826114,0.6488222471356332,0.014793028581556787
11.75,0.9377971189523859,0.6487812096168161,0.014754031435384186
11.8,0.9378182794267649,0.6487405353801158,0.014714997807010185
11.850000000000001,0.9378401575364849,0.6487002381531133,0.01467592907223609
11.9,0.9378627465835105,0.6486603315433119,0.01463682667729
11.950000000000001,0.9378860396432137,0.6486208290338351,0.01459769213849183
12,0.9379100295666153,0.6485817439791728,0.014558527041877222
12.05,0.9379347089826888,0.6485430896009758,0.014519333042780202
12.100000000000001,0.9379600703007265,0.6485048789839025,0.014480111865374344
12.15,0.9379861057127636,0.6484671250715146,0.014440865302172324
12.200000000000001,0.9380128071960637,0.6484298406622269,0.014401595213483748
12.25,0.9380401665156619,0.6483930384053095,0.014362303526831184
12.3,0.9380681752269642,0.6483567307969447,0.01432299223632438
12.350000000000001,0.9380968246784053,0.6483209301763385,0.014283663401992665
12.4,0.93812610601416,0.6482856487218887,0.014244319149075592
12.450000000000001,0.9381560101769102,0.6482508984474084,0.014204961667271955
12.5,0.9381865279106648,0.6482166911984087,0.014165593209947201
12.55,0.9382176497636321,0.6481830386484395,0.014126216093299542
12.600000000000001,0.9382493660911448,0.6481499522954881,0.014086832695484889
12.65,0.9382816670586341,0.6481174434584392,0.014047445455700901
12.700000000000001,0.9383145426446549,0.6480855232735957,0.014008056873230408
12.75,0.938347982643958,0.6480542026912589,0.01396866950644459
12.8,0.9383819766706131,0.6480234924723729,0.013929285971766212
12.850000000000001,0.9384165141611744,0.6479934031852301,0.013889908942593421
12.9,0.9384515843778962,0.6479639452022408,0.01385054114818445
12.950000000000001,0.9384871764119908,0.6479351286967663,0.013811185372503778
13,0.9385232791869311,0.6479069636400168,0.013771844453030289
13.05,0.9385598814617973,0.6478794597980136,0.013732521279527926
13.100000000000001,0.9385969718346635,0.647852626728618,0.013693218792779538
13.15,0.9386345387460282,0.6478264737786246,0.013653939983284425
13.200000000000001,0.938672570482283,0.6478010100809234,0.01361468788992042
13.25,0.9387110551792218,0.6477762445517267,0.013575465598571085
13.3,0.9387499808255878,0.6477521858878653,0.013536276240718844
13.350000000000001,0.9387893352666586,0.647728842564152,0.013497122992004779
13.4,0.9388291062078676,0.6477062228308127,0.013458009070755967
13.450000000000001,0.9388692812184612,0.6476843347109884,0.013418937736481177
13.5,0.9389098477351909,0.6476631859983041,0.01337991228833577
13.55,0.9389507930660395,0.647642784254509,0.013340936063556793
13.600000000000001,0.9389921043939796,0.6476231368071862,0.013302012435869148
13.65,0.9390337687807656,0.647604250747532,0.013263144813863838
13.700000000000001,0.9390757731707557,0.6475861329282072,0.013224336639349289
13.75,0.9391181043947648,0.6475687899612584,0.013185591385676767
13.8,0.939160749173947,0.6475522282161109,0.013146912556040993
13.850000000000001,0.9392036941237065,0.6475364538176334,0.013108303681756956
13.9,0.9392469257576368,0.6475214726442741,0.01306976832051414
13.950000000000001,0.9392904304914856,0.6475072903262697,0.013031310054609207
14,0.9393341946471474,0.647493912243926,0.012992932489158353
14.05,0.9393782044566796,0.6474813435259716,0.012954639250290494
14.100000000000001,0.9394224460663444,0.6474695890479847,0.012916433983322477
14.15,0.9394669055406726,0.647458653430892,0.01287832035091756
14.200000000000001,0.9395115688665512,0.6474485410395424,0.012840302031228368
14.25,0.9395564219573325,0.6474392559813528,0.012802382716025625
14.3,0.9396014506569629,0.6474308021050286,0.012764566108813878
14.350000000000001,0.9396466407441334,0.6474231829993571,0.012726855922935558
14.4,0.9396919779364483,0.6474164019920761,0.01268925587966468
14.450000000000001,0.9397374478946119,0.6474104621488156,0.012651769706291376
14.5,0.9397830362266332,0.6474053662721146,0.012614401134198823
14.55,0.9398287284920472,0.6474011169005114,0.012577153896933648
14.600000000000001,0.939874510206151,0.647397716307709,0.01254003172827134
