time,e,omega,d
0,0.942,0.6482848842903546,0.02633076200788132
0.05,0.9420210742936878,0.6484490400152678,0.026245302964803895
0.1,0.9420393547334531,0.6486152909199594,0.026160959135598016
0.15000000000000002,0.942054803429532,0.648783402493008,0.026077727308429777
0.2,0.9420673904308132,0.6489531667336813,0.025995603555896345
0.25,0.9420770796482911,0.6491243032126115,0.025914581373552847
0.30000000000000004,0.9420838470282353,0.6492965773843906,0.025834653660346287
0.35000000000000003,0.9420876710651865,0.6494697424502941,0.025755811937651266
0.4,0.9420885345568779,0.6496435494371734,0.025678046503782977
0.45,0.9420864246245542,0.6498177474385396,0.025601346488130904
0.5,0.942081332770374,0.6499920839812849,0.025525699897828633
0.55,0.9420732549212586,0.6501663053618211,0.02545109366797517
0.6000000000000001,0.9420621914674109,0.6503401569881144,0.025377513713364042
0.65,0.9420481472946437,0.65051338372471,0.025304944981583356
0.7000000000000001,0.9420311318103759,0.6506857302404665,0.025233371507191033
0.75,0.9420111589631389,0.6508569413586641,0.025162776466675217
0.8,0.9419882472554395,0.6510267624091645,0.02509314223390924
0.8500000000000001,0.9419624197498369,0.6511949395823118,0.025024450435812848
0.9,0.9419337040680998,0.651361220284276,0.024956682007934647
0.9500000000000001,0.9419021323833162,0.651525353493548,0.024889817249676496
1,0.9418677414048388,0.6516870901183069,0.02482383587888703
1.05,0.9418305723559599,0.6518461833543899,0.024758717085560135
1.1,0.9417906709442163,0.6520023890436016,0.024694439584384165
1.1500000000000001,0.9417480873242386,0.6521554660321083,0.024630981665899096
1.2000000000000002,0.9417028760530665,0.6523051765286665,0.024568321246031616
1.25,0.9416550960378666,0.6524512864624344,0.024506435913792438
1.3,0.9416048104759989,0.6525935658401161,0.024445302976935465
1.35,0.9415520867873887,0.6527317891021818,0.02438489950539519
1.4000000000000001,0.9414969965391781,0.652865735477899,0.024325202372336454
1.4500000000000002,0.941439615362637,0.6529951893388923,0.02426618829266936
1.5,0.9413800228623375,0.6531199405509368,0.02420783385890205
1.55,0.9413183025175973,0.6532397848236585,0.0241501155742243
1.6,0.9412545415762266,0.6533545240577938,0.024093009882736396
1.6500000000000001,0.9411888309406166,0.6534639666896189,0.02403649319675944
1.7000000000000002,0.9411212650462314,0.6535679280321263,0.023980541921185587
1.75,0.9410519417325827,0.653666230612476,0.02392513247484952
1.8,0.9409809619071625,0.6537587040225564,0.02387024130618859
1.85,0.940908430061908,0.6538451867623629,0.023815844915064138
1.9000000000000001,0.9408344533748897,0.6539255249394957,0.023761919861290344
1.9500000000000002,0.9407591418438156,0.6539995731708638,0.023708442773922655
2,0.9406826081378248,0.654067194946513,0.023655390359565424
2.0500000000000003,0.940604967467397,0.6541282631503165,0.023602739408872836
2.1,0.9405263372419612,0.6541826597037864,0.023550466792694333
2.15,0.9404468369903968,0.6542302762285367,0.023498549464447332
2.2,0.9403665882051243,0.6542710144462515,0.02344696445900514
2.25,0.9402857140084172,0.6543047856732273,0.023395688881894944
2.3000000000000003,0.9402043393034109,0.6543315131273765,0.023344699918679847
2.35,0.9401225901534991,0.6543511299253916,0.023293974812815914
2.4000000000000004,0.9400405937426568,0.6543635801279837,0.0232434908603339
2.45,0.9399584781671851,0.6543688190111939,0.023193225401670237
2.5,0.9398763722169424,0.654366813510975,0.02314315581148555
2.5500000000000003,0.939794405116847,0.6543575415930253,0.02309325948608153
2.6,0.9397127063329105,0.6543409928736489,0.023043513832597666
2.6500000000000004,0.9396314053551584,0.6543171689034691,0.022993896259089566
2.7,0.9395506314780743,0.6542860823757642,0.02294438416385659
2.75,0.9394705135315174,0.6542477595999876,0.02289495492420567
2.8000000000000003,0.9393911796638313,0.6542022379291959,0.022845585892887203
2.85,0.9393127571241967,0.6541495667774964,0.02279625438723577
2.9000000000000004,0.9392353720269025,0.6540898076994593,0.022746937684760896
2.95,0.9391591490774681,0.6540230346286255,0.022697613019087546
3,0.9390842114519703,0.653949332992075,0.022648257582069637
3.0500000000000003,0.9390106805181261,0.6538688001383324,0.022598848522100458
3.1,0.9389386755951548,0.6537815453999326,0.022549362947950773
3.1500000000000004,0.938868313899335,0.6536876890715793,0.022499777937787117
3.2,0.938799709881016,0.6535873646053612,0.0224500705427422
3.25,0.9387329754819717,0.6534807158030616,0.02240021781163547
3.3000000000000003,0.9386682197737201,0.6533678975962879,0.022350196801337097
3.35,0.9386055487414015,0.653249075870378,0.022299984597613367
3.4000000000000004,0.9385450650083766,0.6531244274045407,0.022249558342443188
3.45,0.9384868678885009,0.652994138849546,0.022198895256939924
3.5,0.9384310530752553,0.6528584068498905,0.02214797267439876
3.5500000000000003,0.9383777124273975,0.6527174378445317,0.022096768076373688
3.6,0.9383269341024267,0.6525714469814045,0.02204525911863248
3.6500000000000004,0.9382788016109281,0.652420659600883,0.021993423710522667
3.7,0.9382333945254957,0.6522653087097446,0.021941240025447964
3.75,0.9381907880395409,0.6521056353726477,0.02188868656115652
3.8000000000000003,0.9381510528146516,0.6519418883144898,0.021835742193584168
3.85,0.9381142548936405,0.6517743234142813,0.021782386229998334
3.9000000000000004,0.9380804555857887,0.651603203184497,0.021728598472270346
3.95,0.938049711380718,0.6514287963143457,0.021674359273553136
4,0.9380220738648093,0.6512513771764644,0.02161964960058844
4.05,0.937997589642566,0.6510712253036784,0.021564451100326218
4.1000000000000005,0.9379763002729907,0.6508886248757166,0.021508746165902395
4.15,0.937958242215139,0.6507038641939346,0.02145251800467493
4.2,0.93794344678361,0.6505172351578703,0.02139575070624272
4.25,0.9379319401160741,0.6503290327512365,0.02133842930944715
4.3,0.9379237431462957,0.6501395544917813,0.021280539873963483
4.3500000000000005,0.9379188715902064,0.6499490999080223,0.021222069547993116
4.4,0.9379173359406731,0.6497579700296279,0.021163006633765618
4.45,0.9379191414710433,0.6495664668140618,0.021103340660426916
4.5,0.9379242882492727,0.6493748926638756,0.021043062444016554
4.55,0.9379327711595753,0.6491835499186406,0.020982164149675936
4.6000000000000005,0.9379445799325677,0.6489927403294561,0.020920639354499462
4.65,0.9379596991842294,0.6488027645614406,0.020858483104786073
4.7,0.937978108463177,0.6486139216983348,0.020795691970856393
4.75,0.9379997823045718,0.6484265087609605,0.020732264097935254
4.800000000000001,0.9380246902908561,0.6482408202480984,0.02066819925154452
4.8500000000000005,0.9380527971221778,0.6480571476540204,0.02060349886254421
4.9,0.9380840626916126,0.6478757790229157,0.020538166064576417
4.95,0.9381184420389818,0.647696998384963,0.020472205775996646
5,0.9381558857631447,0.6475210856197994,0.020405624605704855
5.050000000000001,0.9381963399189857,0.6473483158828267,0.02033843094963155
5.1000000000000005,0.9382397460513906,0.6471789591484391,0.020270635031329094
5.15,0.9382860413652492,0.6470132798673262,0.020202248889344382
5.2,0.9383351588350147,0.6468515365915924,0.020133286382285714
5.25,0.938387027318605,0.6466939816128567,0.020063763187774898
5.300000000000001,0.93844157167541,0.6465408606140084,0.019993696795173228
5.3500000000000005,0.9384987128882827,0.6463924123348039,0.019923106491960246
5.4,0.9385583681892293,0.6462488682513596,0.01985201334372449
5.45,0.9386204511885426,0.6461104522695725,0.0197804401677518
5.5,0.9386848720071312,0.6459773804324773,0.019708411500228132
5.550000000000001,0.9387515376168621,0.6458498611603155,0.019635953453779675
5.6000000000000005,0.9388203513011497,0.645728093349862,0.019563094011101956
5.65,0.9388912135620165,0.6456122678843311,0.019489862592629647
5.7,0.9389640219642893,0.6455025667579732,0.019416290145704736
5.75,0.9390386712632671,0.6453991627950572,0.019342409090862475
5.800000000000001,0.9391150535733198,0.6453022194900139,0.019268253241594112
5.8500000000000005,0.9391930585172056,0.6452118908125466,0.019193857729765236
5.9,0.9392725733766316,0.6451283210245152,0.019119258925964163
5.95,0.9393534832442823,0.645051644510104,0.019044494354969847
6,0.9394356711772704,0.6449819856192467,0.018969602606607974
6.050000000000001,0.9395190183059053,0.6449194582356714,0.018894623265927796
6.1000000000000005,0.9396034041128506,0.6448641663599701,0.01881959675279851
6.15,0.939688706509989,0.644816203570895,0.018744564261410645
6.2,0.9397748019708275,0.644775652779255,0.018669567669653386
6.25,0.9398615657899618,0.6447425869399753,0.018594649385017044
6.300000000000001,0.9399488719883654,0.64471706683551,0.018519852350119406
6.3500000000000005,0.9400365937788628,0.6446991433505641,0.018445219792989954
6.4,0.9401246035987779,0.6446888565472284,0.01837079517160251
6.45,0.9402127732680823,0.6446862355548107,0.018296622062024117
6.5,0.9403009741541335,0.6446912983031673,0.018222744035411867
6.550000000000001,0.9403890773576212,0.64470405226551,0.018149204548427667
6.6000000000000005,0.9404769538548325,0.644724494001555,0.01807604682767012
6.65,0.94056447465524,0.6447526090142813,0.018003313755454154
6.7,0.9406515109550015,0.6447883725981183,0.017931047786368236
6.75,0.9407379343394712,0.644831747678861,0.017859290744728612
6.800000000000001,0.9408236169294966,0.6448826872777191,0.017788083803143354
6.8500000000000005,0.9409084315377516,0.6449411336583498,0.01771746734727492
6.9,0.940992251838226,0.6450070183287681,0.017647480866642605
6.95,0.9410749525642715,0.645080261899739,0.01757816282441694
7,0.9411564095930446,0.6451607749124294,0.01750955063332664
7.050000000000001,0.9412365001493578,0.645248457502156,0.017441680519377802
7.1000000000000005,0.9413151029831206,0.6453431993694146,0.01737458741815344
7.15,0.9413920984098931,0.6454448806859604,0.017308304989087267
7.2,0.9414673688074147,0.6455533701893751,0.017242865261577863
7.25,0.9415407984314449,0.6456685276136999,0.017178298852041956
7.300000000000001,0.9416122736921017,0.645790202989398,0.017114634788868918
7.3500000000000005,0.9416816833273363,0.6459182367616524,0.01705190043814382
7.4,0.9417489186257744,0.6460524597927338,0.01699012140450952
7.45,0.9418138734034408,0.6461926942037595,0.016929321600878063
7.5,0.9418764442602587,0.6463387531972733,0.016869523131230885
7.550000000000001,0.941936530767955,0.64649044115301,0.01681074622738924
7.6000000000000005,0.9419940353920291,0.6466475545139394,0.01675300935760998
7.65,0.9420488642611856,0.6468098803268898,0.01669632882152093
7.7,0.9421009266517527,0.6469771984178639,0.016640719143121905
7.75,0.9421501353698615,0.6471492809202549,0.016586192905666416
7.800000000000001,0.9421964069158354,0.6473258925080667,0.016532760732002934
7.8500000000000005,0.9422396616042961,0.647506790738942,0.016480431296949278
7.9,0.9422798236993593,0.6476917263545598,0.01642921133407542
7.95,0.9423168215470569,0.6478804435894812,0.01637910564865812
8,0.9423505877040992,0.6480726804891562,0.016330117136865732
8.05,0.9423810590627023,0.6482681692369352,0.016282246811009506
8.1,0.9424081769712492,0.648466636489631,0.016235493830651995
8.15,0.9424318873505242,0.64866780372124,0.016189855539344107
8.200000000000001,0.9424521408052567,0.6488713875744109,0.016145327506735235
8.25,0.942468892730717,0.6490771002192249,0.01610190357577569
8.3,0.9424821034140977,0.6492846497188459,0.01605957591470701
8.35,0.9424917381274276,0.64949374038929375,0.01601833507161614
8.4,0.9424977672266329,0.6497040732118223,0.01597817004024797
8.450000000000001,0.9425001662284116,0.6499153461904582,0.015939068320399596
8.5,0.9424989158872044,0.6501272547353654,0.015901015984814706
8.55,0.9424940022698451,0.650339492067798,0.015863997751650816
8.6,0.9424854168195403,0.6505517496150081,0.01582799705732861
8.65,0.9424731564137688,0.6507637174137283,0.015792996132437665
8.700000000000001,0.942457223414834,0.6509750845123946,0.015758976078400766
8.75,0.9424376257110972,0.651185539366891,0.015725916943803292
8.8,0.942414376754946,0.6513947702657464,0.015693797806581145
8.85,0.9423874955895242,0.651602465737156,0.015662596852833315
8.9,0.9423570068677095,0.6518083149483442,0.015632291453779402
8.950000000000001,0.9423229408651996,0.6520120081588779,0.015602858252406085
9,0.9422853334814388,0.652213237107779,0.015574273236266017
9.05,0.9422442262338997,0.6524116954256696,0.015546511813558483
9.1,0.9421996662443497,0.6526070790665995,0.015519548891315304
9.15,0.9421517062151723,0.6527990867247482,0.015493358948376928
9.200000000000001,0.9421004043964163,0.652987420257151,0.015467916106898372
9.25,0.9420458245446439,0.6531717851025254,0.01544319420055818
9.3,0.941988035872552,0.6533518906907884,0.015419166837762014
9.35,0.9419271129875506,0.6535274508816619,0.015395807466454301
9.4,0.9418631358220108,0.6536981843822667,0.015373089431571934
9.450000000000001,0.9417961895537521,0.6538638151697144,0.015350986029321601
9.5,0.9417263645167655,0.6540240729149696,0.015329470557449659
9.55,0.9416537561021757,0.6541786934073693,0.015308516361175781
9.600000000000001,0.9415784646493895,0.6543274189797105,0.01528809687461975
9.65,0.9415005953273908,0.6544699989338377,0.015268185657581755
9.700000000000001,0.9414202580105359,0.6546061899528326,0.0152487564265614
9.75,0.9413375671282025,0.6547357565666196,0.015229783084874693
9.8,0.9412526415250823,0.654858471547003,0.01521123974271297
9.850000000000001,0.9411656043049369,0.6549741163282727,0.015193100734094028
9.9,0.9410765826586661,0.6550824814456477,0.015175340630578675
9.950000000000001,0.940985707687343,0.6551833669556003,0.01515793424886495
10,0.9408931142134743,0.6552765828594453,0.015140856653792292
10.05,0.9407989405854777,0.6553619495193943,0.01512408315714552
10.100000000000001,0.9407033284765699,0.655439298060582,0.015107589311549817
10.15,0.9406064226624202,0.655508470796696,0.015091350900669195
10.200000000000001,0.940508370799048,0.6555693216269399,0.015075343925222194
10.25,0.940409323254737,0.6556217167765569,0.015059544590706044
10.3,0.9403094326960242,0.6556655343308381,0.015043929273425275
10.350000000000001,0.9402088539504426,0.6557006651062789,0.015028474503631532
10.4,0.9401077437860104,0.6557270131763719,0.015013156942042066
10.450000000000001,0.9400062605139793,0.6557444952100201,0.014997953341503105
10.5,0.9399045640520285,0.6557530435003655,0.014982840536659055
10.55,0.9398028152433803,0.6557526033309388,0.014967795390696193
10.600000000000001,0.9397011757456293,0.6557431343491585,0.014952794768272635
10.65,0.9395998077473605,0.6557246109155677,0.014937815503717602
10.700000000000001,0.9394988736608592,0.6556970226769605,0.014922834364105476
10.75,0.9393985358247519,0.655660373727503,0.014907828022323525
10.8,0.93929895621756,0.6556146834062436,0.014892773020343517
10.850000000000001,0.9392002961604882,0.6555599866455184,0.014877645738264498
10.9,0.9391027160789444,0.6554963329102091,0.014862422377880054
10.950000000000001,0.9390063750113348,0.6554237893892534,0.01484707889888966
11,0.9389114304762927,0.6553424375922792,0.01483159103998591
11.05,0.9388180381322461,0.6552523746339363,0.014815934280771199
11.100000000000001,0.9387263514675436,0.6551537132803158,0.014800083825977875
11.15,0.938636521432488,0.6550465821878735,0.014784014588055236
11.200000000000001,0.9385486963348729,0.6549311246987786,0.014767701201246906
11.25,0.9384630214554863,0.6548074993127562,0.014751118006881708
11.3,0.9383796387353894,0.6546758796825001,0.014734239054178743
11.350000000000001,0.9382986867665217,0.6545364532322946,0.01471703813092813
11.4,0.9382202998112118,0.6543894238156112,0.014699488723346983
11.450000000000001,0.9381446083002356,0.6542350080687909,0.014681564105344195
11.5,0.938071738325323,0.6540734362886723,0.014663237339532573
11.55,0.9380018113756151,0.6539049520937021,0.014644481311080806
11.600000000000001,0.9379349441350214,0.6537298118728324,0.014625268771838663
11.65,0.937871248270173,0.6535482842894315,0.01460557238834562
11.700000000000001,0.9378108302296512,0.6533606497550029,0.014585364796369453
11.75,0.9377537910558054,0.6531671998728941,0.014564618661686084
11.8,0.9377002262096039,0.6529682368541886,0.014543306746902549
11.850000000000001,0.9376502254088659,0.6527640729085702,0.014521401984078884
11.9,0.9376038724801724,0.652555029612873,0.014498877552845285
11.950000000000001,0.9375612452246913,0.6523414372601123,0.014475706963660068
12,0.9375224152980739,0.6521236341918202,0.014451864145805344
12.05,0.9374874481045155,0.651901966116506,0.01442732353967185
12.100000000000001,0.9374564027077149,0.651676785439804,0.014402060189710854
12.15,0.9374293317447919,0.6514484504994549,0.014376049852732917
12.200000000000001,0.9374062813701661,0.6512173249075202,0.014349269092935159
12.25,0.9373872912066112,0.6509837768499158,0.014321695384971246
12.3,0.93737239430605,0.6507481783538693,0.014293307222746732
12.350000000000001,0.9373616171277864,0.6505109045835475,0.01426408422526496
12.4,0.9373549795293573,0.6502723331308687,0.014234007244059389
12.450000000000001,0.937352494769329,0.6500328433194047,0.014203058468977094
12.5,0.9373541695236741,0.6497928155332353,0.014171221530373625
12.55,0.9373600039125998,0.649552630507188,0.014138481606801942
12.600000000000001,0.9373699915401076,0.6493126686644006,0.014104825524624479
12.65,0.9373841195423287,0.6490733094802816,0.014070241852591566
12.700000000000001,0.9374023686529421,0.6488349307769086,0.01403472100504331
12.75,0.9374247132712226,0.648597908140318,0.013998255324429455
12.8,0.9374511215413658,0.6483626143145091,0.013960839164957883
12.850000000000001,0.9374815554433654,0.648129418582074,0.013922468975205656
12.9,0.9375159708908823,0.6478986861878825,0.013883143370577136
12.950000000000001,0.937554317838176,0.6476707777730977,0.013842863200157434
13,0.9375965403928967,0.6474460488320715,0.013801631606278057
13.05,0.937642576933947,0.64722484920266,0.01375945407443415
13.100000000000001,0.9376923602425444,0.6470075225359402,0.013716338480256614
13.15,0.9377458176344207,0.6467944058145481,0.013672295124491673
13.200000000000001,0.9378028709558993,0.6465858286674742,0.013627336828380599
13.25,0.9378634370912151,0.6463821134374813,0.013581478780342448
13.3,0.9379274278890691,0.6461835744565595,0.013534738649627353
13.350000000000001,0.937994750242278,0.6459905175331901,0.013487136619873363
13.4,0.9380653066097917,0.6458032402136378,0.013438695193062523
13.450000000000001,0.9381389942240904,0.6456220296349108,0.01338943966882128
13.5,0.9382157063284882,0.6454471640619346,0.013339397560986095
13.55,0.9382953319291224,0.6452789118693505,0.013288598772180832
13.600000000000001,0.9383777559389817,0.6451175311554735,0.013237075561436794
13.65,0.938462859278959,0.6449632691878654,0.013184862532560623
13.700000000000001,0.9385505193146357,0.6448163628637711,0.013131996412564887
13.75,0.9386406098689246,0.644677038006513,0.01307851607356068
13.8,0.9387330013464127,0.6445455089657941,0.013024462481256282
13.850000000000001,0.9388275611610551,0.6444219792518814,0.012969878450827609
13.9,0.9389241532732521,0.6443066389891324,0.012914808945800856
13.950000000000001,0.9390226391083636,0.644199667238138,0.012859300519693487
14,0.9391228774477807,0.6441012308793317,0.012803401377036193
14.05,0.9392247245976457,0.6440114843609387,0.01274716126334259
14.100000000000001,0.9393280345386085,0.6439305692580993,0.012690631358250624
14.15,0.9394326592603709,0.6438586150080718,0.012633864050681516
14.200000000000001,0.9395384488509818,0.6437957382635118,0.012576912857984282
14.25,0.9396452516526702,0.6437420426040953,0.012519832301653887
14.3,0.9397529145714308,0.6436976194215532,0.012462677689584936
14.350000000000001,0.9398612829549876,0.6436625452172667,0.012405505134876158
14.4,0.939970201152216,0.6436368843979142,0.012348371197383223
14.450000000000001,0.9400795125458082,0.6436206881510488,0.012291332810156933
14.5,0.9401890597372001,0.6436139943173318,0.012234447124045643
14.55,0.9402986847464231,0.6436168274418615,0.012177771341109351
14.600000000000001,0.940408229202153,0.643629198760075,0.01212136255362845
