time,e,omega,d
0,0.942,0.6482532304803152,0.02633076200788132
0.05,0.942020467973764,0.6482882831744929,0.02624547235985649
0.1,0.9420403879552096,0.648323728411628,0.026160676897177996
0.15000000000000002,0.94205975277957,0.6483595561990445,0.026076375177927016
0.2,0.9420785563140253,0.6483957576844901,0.02599256676734938
0.25,0.942096790544236,0.6484323209391681,0.02590925103027314
0.30000000000000004,0.9421144491229428,0.6484692359862791,0.0258264273664019
0.35000000000000003,0.9421315255777472,0.6485064923095308,0.025744095098969685
0.4,0.9421480136167635,0.6485440792699626,0.025662253492234274
0.45,0.9421639071295936,0.6485819861086664,0.025580901751831798
0.5,0.9421792001898167,0.6486202019502985,0.025500039024809358
0.55,0.9421938870571759,0.6486587158063204,0.025419664399739722
0.6000000000000001,0.9422079621678955,0.6486975165850553,0.02533977691051399
0.65,0.9422214201746757,0.6487365930728525,0.02526037552476312
0.7000000000000001,0.9422342559072282,0.6487759339624337,0.0251814591570053
0.75,0.9422464643896864,0.6488155278466807,0.025103026664038804
0.8,0.9422580408438637,0.6488553632214303,0.025025076844800168
0.8500000000000001,0.9422689806898641,0.648895428489735,0.0249476084410526
0.9,0.9422792795478981,0.6489357119653951,0.024870620137707838
0.9500000000000001,0.9422889332400494,0.6489762018765276,0.02479411056317357
1,0.942297937791982,0.6490168863691675,0.02471807828972826
1.05,0.942306289434588,0.6490577535109026,0.024642521833922862
1.1,0.9423139846055242,0.6490987912944195,0.0245674396569945
1.1500000000000001,0.9423210199508827,0.649139987641542,0.024492830165359854
1.2000000000000002,0.942327392326537,0.6491813304066971,0.024418691711064502
1.25,0.9423330987995218,0.649222807380624,0.024345022592280063
1.3,0.9423381366494225,0.6492644062942783,0.02427182105384506
1.35,0.9423425033696328,0.6493061148226198,0.02419908528781251
1.4000000000000001,0.942346196668558,0.6493479205884457,0.02412681343402226
1.4500000000000002,0.9423492144707541,0.6493898111662543,0.02405500358069576
1.5,0.9423515549179976,0.6494317740861307,0.023983653765051887
1.55,0.9423532163702899,0.6494737968376574,0.02391276197394324
1.6,0.9423541974067915,0.649515866873844,0.023842326144512156
1.6500000000000001,0.9423544968266875,0.6495579716150797,0.023772344164865695
1.7000000000000002,0.9423541136499839,0.649600098453103,0.02370281387476886
1.75,0.9423530471182315,0.6496422347549908,0.02363373306635534
1.8,0.9423512966951814,0.6496843678671644,0.023565099484854954
1.85,0.9423488620673658,0.6497264851194106,0.02349691082933712
1.9000000000000001,0.9423457431446084,0.6497685738289172,0.023429164753469473
1.9500000000000002,0.9423419400604616,0.6498106213043238,0.02336185886629095
2,0.9423374531725699,0.6498526148497816,0.023294990732998552
2.0500000000000003,0.9423322830629597,0.6498945417690273,0.023228557875746892
2.1,0.9423264305382543,0.6499363893694643,0.02316255777445992
2.15,0.9423198966298147,0.6499781449662535,0.02309698786765391
2.2,0.9423126825938047,0.6500197958864108,0.02303184555327095
2.25,0.9423047899111805,0.6500613294729107,0.022967128189522186
2.3000000000000003,0.9422962202876043,0.650102733088795,0.02290283309574001
2.35,0.9422869756532811,0.6501439941212832,0.022838957553238386
2.4000000000000004,0.9422770581627197,0.6501850999858869,0.022775498806180596
2.45,0.9422664701944156,0.6502260381305236,0.022712454062453556
2.5,0.9422552143504578,0.6502667960396306,0.022649820494548046
2.5500000000000003,0.9422432934560572,0.6503073612382757,0.022587595240443913
2.6,0.9422307105589982,0.6503477212962671,0.022525775404499716
2.6500000000000004,0.9422174689290114,0.6503878638322561,0.022464358058345835
2.7,0.9422035720570694,0.650427776517835,0.02240334024178052
2.75,0.9421890236546039,0.6504674470816283,0.022342718963667962
2.8000000000000003,0.942173827652645,0.6505068633133739,0.022282491202837783
2.85,0.942157988200882,0.6505460130679955,0.022222653908985226
2.9000000000000004,0.9421415096666462,0.650584884269663,0.02216320400357129
2.95,0.9421243966338158,0.6506234649158399,0.0221041383807222
3,0.942106653901642,0.6506617430813173,0.022045453908127455
3.0500000000000003,0.9420882864834982,0.6506997069222323,0.021987147427935914
3.1,0.9420692996055501,0.6507373446800685,0.021929215757649178
3.1500000000000004,0.9420496987053488,0.6507746446856395,0.02187165569101168
3.2,0.9420294894303465,0.650811595363052,0.021814463998896888
3.25,0.9420086776363344,0.6508481852336483,0.02175763743018903
3.3000000000000003,0.9419872693858043,0.6508844029199256,0.02170117271265975
3.35,0.9419652709462323,0.6509202371494325,0.02164506655383911
3.4000000000000004,0.9419426887882877,0.6509556767586394,0.021589315641880533
3.45,0.9419195295839644,0.6509907106967826,0.021533916646418995
3.5,0.9418958002046381,0.6510253280296804,0.02147886621942209
3.5500000000000003,0.9418715077190475,0.6510595179435195,0.02142416099603348
3.6,0.9418466593912002,0.6510932697486113,0.02136979759540821
3.6500000000000004,0.9418212626782064,0.6511265728831149,0.021315772621539573
3.7,0.9417953252280372,0.6511594169167276,0.021262082664076976
3.75,0.9417688548772107,0.6511917915543397,0.02120872429913452
3.8000000000000003,0.9417418596484057,0.651223686639653,0.021155694090089924
3.85,0.9417143477480036,0.6512550921587615,0.021102988588373384
3.9000000000000004,0.9416863275635587,0.6512859982436937,0.02105060433424614
3.95,0.9416578076612,0.6513163951759134,0.02099853785756836
4,0.9416287967829609,0.6513462733897791,0.020946785678556158
4.05,0.9415993038440422,0.6513756234759602,0.020895344308527467
4.1000000000000005,0.9415693379300069,0.6514044361848084,0.0208442102506365
4.15,0.9415389082939067,0.651432702429683,0.02079338000059669
4.2,0.9415080243533448,0.6514604132902299,0.02074285004739186
4.25,0.9414766956874705,0.6514875600156104,0.020692616873975517
4.3,0.9414449320339127,0.6515141340276814,0.020642676957958114
4.3500000000000005,0.9414127432856477,0.651540126924124,0.02059302677228221
4.4,0.941380139487807,0.6515655304815183,0.02054366278588545
4.45,0.9413471308344221,0.651590336658367,0.020494581464351284
4.5,0.9413137276651117,0.6516145375980602,0.020445779270547422
4.55,0.9412799404617072,0.6516381256317879,0.020397252665252028
4.6000000000000005,0.9412457798448232,0.6516610932813909,0.020348998107767646
4.65,0.9412112565703709,0.6516834332621556,0.020301012056522946
4.7,0.941176381526015,0.651705138485547,0.02025329096966229
4.75,0.9411411657275791,0.6517262020618815,0.0202058313056233
4.800000000000001,0.9411056203153961,0.6517466173029354,0.02015862952370243
4.8500000000000005,0.9410697565506094,0.6517663777244915,0.020111682084608798
4.9,0.9410335858114233,0.6517854770488197,0.02006498545100631
4.95,0.9409971195893038,0.6518039092070914,0.020018536088044363
5,0.9409603694851352,0.6518216683417267,0.019972330463877298
5.050000000000001,0.9409233472053286,0.6518387488086742,0.019926365050172694
5.1000000000000005,0.9408860645578866,0.6518551451796194,0.019880636322609013
5.15,0.9408485334484267,0.6518708522441247,0.019835140761362544
5.2,0.9408107658761617,0.6518858650116959,0.019789874851584177
5.25,0.9407727739298426,0.6519001787137773,0.01974483508386613
5.300000000000001,0.9407345697836611,0.6519137888056724,0.019700017954699042
5.3500000000000005,0.9406961656931179,0.6519266909683907,0.019655419966919722
5.4,0.9406575739908547,0.651938881110418,0.019611037630149868
5.45,0.9406188070824537,0.6519503553694104,0.01956686746122622
5.5,0.9405798774422058,0.6519611101138116,0.01952290598462237
5.550000000000001,0.9405407976088476,0.651971141944391,0.01947914973286275
5.6000000000000005,0.9405015801812721,0.6519804476957021,0.019435595246929137
5.65,0.9404622378142119,0.6519890244374628,0.01939223907666007
5.7,0.9404227832138978,0.6519968694758526,0.019349077781143677
5.75,0.9403832291336943,0.6520039803547298,0.01930610792910423
5.800000000000001,0.9403435883697143,0.6520103548567656,0.01926332609928301
5.8500000000000005,0.9403038737564144,0.6520159910044955,0.01922072888081381
5.9,0.9402640981621716,0.6520208870612861,0.019178312873593607
5.95,0.9402242744848454,0.6520250415322194,0.019136074688648846
6,0.9401844156473248,0.6520284531648896,0.0190940109484978
6.050000000000001,0.9401445345930641,0.6520311209501172,0.01905211828750952
6.1000000000000005,0.940104644281607,0.652033044122574,0.019010393352259777
6.15,0.9400647576841031,0.6520342221613245,0.018968832801884584
6.2,0.9400248877788173,0.6520346547902779,0.018927433308431687
6.25,0.9399850475466343,0.652034341978554,0.01888619155721055
6.300000000000001,0.9399452499665597,0.6520332839407609,0.018845104247141337
6.3500000000000005,0.9399055080112211,0.6520314811371841,0.01880416809110335
6.4,0.9398658346423673,0.6520289342738882,0.018763379816283402
6.45,0.9398262428063733,0.6520256443027284,0.018722736164524623
6.5,0.9397867454297464,0.652021612421274,0.01868223389267614
6.550000000000001,0.9397473554146412,0.6520168400726435,0.018641869772944155
6.6000000000000005,0.9397080856343805,0.6520113289452479,0.01860164059324484
6.65,0.9396689489289869,0.6520050809724476,0.01856154315755949
6.7,0.9396299581007267,0.6519980983321172,0.018521574286292457
6.75,0.939591125909666,0.6519903834461235,0.01848173081663222
6.800000000000001,0.9395524650692435,0.6519819389797115,0.018442009602916077
6.8500000000000005,0.9395139882418589,0.6519727678408027,0.018402407516998856
6.9,0.939475708034482,0.6519628731792043,0.018362921448626043
6.95,0.9394376369942808,0.6519522583857281,0.01832354830581175
7,0.9393997876042733,0.6519409270912214,0.018284285015221877
7.050000000000001,0.9393621722790035,0.6519288831655099,0.01824512852256285
7.1000000000000005,0.9393248033602427,0.6519161307162509,0.018206075792976298
7.15,0.9392876931127191,0.6519026740877,0.01816712381143995
7.2,0.939250853719877,0.651888517859389,0.01812826958317517
7.25,0.9392142972796667,0.6518736668447177,0.018089510134061303
7.300000000000001,0.9391780358003676,0.651858126089459,0.018050842511057257
7.3500000000000005,0.9391420811964462,0.6518419008701771,0.01801226378263047
7.4,0.939106445284449,0.6518249966925613,0.017973771039193585
7.45,0.939071139778935,0.6518074192896739,0.017935361393548975
7.5,0.939036176288446,0.6517891746201144,0.01789703198134144
7.550000000000001,0.9390015663115191,0.6517702688661007,0.017858779961519158
7.6000000000000005,0.9389673212327404,0.6517507084314657,0.01782060251680308
7.65,0.9389334523188443,0.6517304999395747,0.017782496854164956
7.7,0.9388999707148571,0.6517096502311586,0.017744460205314002
7.75,0.9388668874402882,0.6516881663620693,0.017706489827192435
7.800000000000001,0.9388342133853699,0.651666055600954,0.01766858300247983
7.8500000000000005,0.9388019593073468,0.6516433254268527,0.01763073704010643
7.9,0.9387701358268161,0.6516199835267162,0.017592949275775333
7.95,0.9387387534241216,0.6515960377928499,0.01755521707249368
8,0.9387078224358009,0.6515714963202808,0.017517537821112667
8.05,0.9386773530510877,0.6515463674040509,0.017479908940876508
8.1,0.9386473553084714,0.6515206595364377,0.017442327879980034
8.15,0.9386178390923139,0.6514943814041021,0.01740479211613508
8.200000000000001,0.9385888141295249,0.6514675418851668,0.017367299157145313
8.25,0.9385602899862987,0.6514401500462239,0.017329846541489485
8.3,0.9385322760649107,0.6514122151392759,0.01729243183891289
8.35,0.9385047816005774,0.6513837465986088,0.01725505265102674
8.4,0.9384778156583794,0.6513547540376,0.01721770661191537
8.450000000000001,0.9384513871302482,0.6513252472454631,0.017180391388750903
8.5,0.9384255047320199,0.6512952361839284,0.017143104682415155
8.55,0.9384001770005533,0.6512647309838631,0.017105844228128376
8.6,0.9383754122909171,0.6512337419418326,0.017068607796084663
8.65,0.938351218773644,0.6512022795166017,0.017031393192093482
8.700000000000001,0.9383276044320547,0.6511703543255809,0.016994198258227115
8.75,0.9383045770596506,0.6511379771412162,0.016957020873473467
8.8,0.9382821442575789,0.6511051588873257,0.016919858954393886
8.85,0.9382603134321666,0.6510719106353842,0.016882710455785554
8.9,0.9382390917925282,0.6510382436007576,0.01684557337134788
8.950000000000001,0.9382184863482455,0.6510041691388879,0.016808445734352546
9,0.9381985039071208,0.6509696987414315,0.016771325618316586
9.05,0.9381791510730038,0.6509348440323517,0.0167342111376779
9.1,0.9381604342436927,0.6508996167639667,0.016697100448472835
9.15,0.9381423596089105,0.6508640288129571,0.01665999174901508
9.200000000000001,0.9381249331483564,0.6508280921763309,0.016622883280575346
9.25,0.9381081606298335,0.650791818967351,0.0165857733280612
9.3,0.9380920476074516,0.6507552214114253,0.016548660220696478
9.35,0.9380765994199071,0.6507183118419603,0.016511542332699483
9.4,0.9380618211888403,0.6506811026961832,0.016474418083959486
9.450000000000001,0.9380477178172691,0.65064360651093,0.016437285940710696
9.5,0.9380342939881001,0.6506058359184047,0.016400144416203088
9.55,0.9380215541627173,0.6505678036419087,0.016362992071369337
9.600000000000001,0.9380095025796485,0.6505295224915454,0.0163258275154872
9.65,0.9379981432533104,0.6504910053598976,0.016288649406836497
9.700000000000001,0.9379874799728302,0.6504522652176832,0.01625145645335008
9.75,0.9379775163009464,0.6504133151093887,0.01621424741325794
9.8,0.9379682555729871,0.6503741681488836,0.01617702109572373
9.850000000000001,0.9379597008959272,0.6503348375150151,0.016139776361472947
9.9,0.9379518551475226,0.6502953364471884,0.01610251212341195
9.950000000000001,0.9379447209755228,0.6502556782409313,0.016065227347237098
10,0.937938300796962,0.650215876243446,0.016027921052033135
10.05,0.9379325967975276,0.6501759438491497,0.01599059231086014
10.100000000000001,0.9379276109310055,0.6501358944952059,0.01595324025132814
10.15,0.9379233449188047,0.6500957416570479,0.015915864056158687
10.200000000000001,0.9379198002495572,0.6500554988438952,0.015878462963732517
10.25,0.9379169781787964,0.6500151795942677,0.015841036268622585
10.3,0.9379148797287119,0.6499747974714936,0.01580358332211164
10.350000000000001,0.9379135056879798,0.6499343660592195,0.01576610353269349
10.4,0.9379128566116703,0.6498938989569188,0.015728596366557344
10.450000000000001,0.937912932821231,0.6498534097754031,0.015691061348054244
10.5,0.9379137344045451,0.6498129121323362,0.015653498060144974
10.55,0.9379152612160643,0.6497724196477549,0.015615906144828592
10.600000000000001,0.9379175128770176,0.6497319459395953,0.015578285303550874
10.65,0.9379204887756936,0.649691504619227,0.01554063529759188
10.700000000000001,0.9379241880677954,0.6496511092869989,0.015502955948431943
10.75,0.9379286096768713,0.6496107735277948,0.015465247138095323
10.8,0.9379337522948152,0.6495705109066023,0.015427508809470842
10.850000000000001,0.9379396143824422,0.649530334964096,0.015389740966608754
10.9,0.9379461941701328,0.6494902592122366,0.015351943674993228
10.950000000000001,0.9379534896585506,0.6494502971298863,0.015314117061789702
11,0.93796149861943,0.6494104621584447,0.015276261316066506
11.05,0.9379702185964323,0.6493707676975022,0.015238376688990085
11.100000000000001,0.9379796469060732,0.6493312271005166,0.01520046349399322
11.15,0.9379897806387176,0.6492918536705115,0.015162522106915655
11.200000000000001,0.9380006166596432,0.6492526606557987,0.015124552966116485
11.25,0.9380121516101704,0.6492136612457265,0.015086556572557861
11.3,0.9380243819088602,0.6491748685664541,0.01504853348985935
11.350000000000001,0.9380373037527774,0.6491362956767535,0.015010484344322537
11.4,0.9380509131188189,0.6490979555638409,0.01497240982492528
11.450000000000001,0.9380652057651071,0.6490598611392386,0.01493431068328525
11.5,0.9380801772324467,0.6490220252346682,0.014896187733592229
11.55,0.9380958228458451,0.6489844605979754,0.014858041852508793
11.600000000000001,0.9381121377160951,0.6489471798890908,0.01481987397903897
11.65,0.9381291167414187,0.6489101956760228,0.014781685114364526
11.700000000000001,0.9381467546091727,0.6488735204308892,0.014743476321648468
11.75,0.9381650457976135,0.6488371665259836,0.014705248725805616
11.8,0.9381839845777219,0.6488011462298814,0.014667003513239742
11.850000000000001,0.9382035650150864,0.6487654717035846,0.014628741931547217
11.9,0.9382237809718436,0.6487301549967063,0.014590465289186817
11.950000000000001,0.9382446261086766,0.6486952080436965,0.01455217495511556
12,0.9382660938868689,0.6486606426601107,0.014513872358390372
12.05,0.9382881775704137,0.6486264705389201,0.01447555898773547
12.100000000000001,0.938310870228178,0.6485927032468676,0.01443723639107535
12.15,0.9383341647361209,0.6485593522208668,0.014398906175033303
12.200000000000001,0.9383580537795628,0.6485264287644485,0.01436057000439545
12.25,0.93838252985551,0.6484939440442524,0.014322229601540238
12.3,0.9384075852750275,0.6484619090865663,0.014283886745833436
12.350000000000001,0.9384332121656647,0.6484303347739151,0.014245543272988728
12.4,0.9384594024739279,0.6483992318416966,0.014207201074393945
12.450000000000001,0.9384861479678055,0.6483686108748692,0.014168862096403041
12.5,0.938513440239337,0.648338482304688,0.014130528339594028
12.55,0.9385412707072325,0.6483088564054943,0.014092201857993005
12.600000000000001,0.9385696306195362,0.6482797432915559,0.014053884758264487
12.65,0.938598511056337,0.6482511529139602,0.014015579198868347
12.700000000000001,0.9386279029325227,0.6482230950575606,0.013977287389183567
12.75,0.9386577970005786,0.6481955793379776,0.013939011588599174
12.8,0.938688183853429,0.6481686151986537,0.013900754105572689
12.850000000000001,0.9387190539273198,0.6481422119079642,0.013862517296656439
12.9,0.9387503975047444,0.6481163785563833,0.013824303565492168
12.950000000000001,0.9387822047174087,0.6480911240537076,0.013786115361774366
13,0.9388144655492356,0.6480664571263354,0.013747955180182824
13.05,0.9388471698394093,0.6480423863146048,0.013709825559284856
13.100000000000001,0.9388803072854565,0.6480189199701888,0.013671729080407721
13.15,0.9389138674463658,0.6479960662535498,0.013633668366481895
13.200000000000001,0.9389478397457429,0.6479738331314534,0.013595646080855643
13.25,0.9389822134750007,0.6479522283745408,0.013557664926081615
13.3,0.9390169777965856,0.6479312595549622,0.013519727642676057
13.350000000000001,0.9390521217472357,0.6479109340440707,0.01348183700785134
13.4,0.9390876342412744,0.6478912590101764,0.013443995834222455
13.450000000000001,0.9391235040739335,0.6478722414163633,0.01340620696848826
13.5,0.9391597199247101,0.6478538880183664,0.013368473290088221
13.55,0.9391962703607527,0.6478362053625121,0.013330797709835328
13.600000000000001,0.9392331438402769,0.647819199783721,0.01329318316852617
13.65,0.9392703287160112,0.6478028774035737,0.013255632635528813
13.700000000000001,0.9393078132386699,0.6477872441284392,0.0132181491073494
13.75,0.9393455855604534,0.6477723056476687,0.013180735606178415
13.8,0.9393836337385759,0.6477580674318512,0.013143395178417354
13.850000000000001,0.9394219457388171,0.6477445347311347,0.013106130893186818
13.9,0.9394605094391002,0.6477317125736125,0.013068945840816977
13.950000000000001,0.9394993126330933,0.6477196057637733,0.013031843131321247
14,0.9395383430338343,0.6477082188810166,0.012994825892854247
14.05,0.9395775882773778,0.6476975562782346,0.012957897270155018
14.100000000000001,0.9396170359264641,0.6476876220804586,0.012921060422976402
14.15,0.9396566734742079,0.6476784201835722,0.012884318524501762
14.200000000000001,0.9396964883478093,0.6476699542530902,0.012847674759749928
14.25,0.9397364679122808,0.6476622277230042,0.012811132323969491
14.3,0.9397765994741952,0.6476552437946949,0.012774694421023485
14.350000000000001,0.9398168702854495,0.6476490054359108,0.012738364261765549
14.4,0.9398572675470461,0.6476435153798145,0.012702145062408571
14.450000000000001,0.9398977784128905,0.6476387761240956,0.012666040042887041
14.5,0.9399383899936017,0.6476347899301518,0.012630052425214054
14.55,0.9399790893603401,0.6476315588223363,0.012594185431834182
14.600000000000001,0.9400198635486464,0.6476290845872742,0.012558442283973285
