time,e,omega,d
0,0.942,0.6482532304803152,0.02633076200788132
0.05,0.9420195539287584,0.6483943930627749,0.026245724596751844
0.1,0.9420367218099283,0.6485369613879988,0.02616168445433311
0.15000000000000002,0.9420514778600592,0.6486807697506944,0.026078637923122174
0.2,0.9420638017917187,0.6488256716398694,0.025996581052462185
0.25,0.9420736692748521,0.6489714700574901,0.0259155077206034
0.30000000000000004,0.9420810642669233,0.6491180009826755,0.025835411710612405
0.35000000000000003,0.942085972545079,0.6492650922153748,0.025756285814216975
0.4,0.9420883828912298,0.6494125704788566,0.025678121995451435
0.45,0.9420882871006203,0.6495602615684469,0.025600911423872812
0.5,0.9420856800114832,0.649707990574329,0.025524644503607145
0.55,0.9420805595271209,0.64985558208652,0.025449310904178797
0.6000000000000001,0.9420729266346372,0.6500028604032764,0.025374899592166652
0.65,0.9420627854198755,0.6501496497412047,0.02530139886361777
0.7000000000000001,0.9420501430784909,0.6502957744468701,0.025228796377074675
0.75,0.9420350099230768,0.6504410592096557,0.025157079187075004
0.8,0.9420173993862716,0.6505853292756251,0.02508623377798206
0.8500000000000001,0.9419973280197766,0.6507284106621372,0.02501624609800591
0.9,0.9419748154892225,0.6508701303729544,0.024947101593276125
0.9500000000000001,0.9419498845648293,0.6510103166135828,0.024878785241829557
1,0.9419225611078093,0.6511487990065818,0.02481128158737957
1.05,0.941892874052471,0.6512854088065709,0.02474457477273658
1.1,0.941860855383988,0.6514199791146644,0.02467864857275412
1.1500000000000001,0.9418265401118058,0.6515523450920564,0.024613486426679314
1.2000000000000002,0.9417899662386674,0.6516823441724812,0.02454907146979235
1.25,0.9417511747252432,0.6518098162732654,0.024485386564225133
1.3,0.9417102094503651,0.651934604004692,0.024422414328856216
1.35,0.9416671171668668,0.65205655287739,0.024360137168185927
1.4000000000000001,0.9416219474530465,0.6521755115074622,0.024298537300103146
1.4500000000000002,0.9415747526597724,0.6522913318190656,0.024237596782463143
1.5,0.9415255878532646,0.6524038692441517,0.02417729753840422
1.55,0.941474510753592,0.6525129829190763,0.024117621380339516
1.6,0.941421581668937,0.652618535877786,0.024058550032569338
1.6500000000000001,0.9413668634256838,0.6527203952412881,0.02400006515246866
1.7000000000000002,0.9413104212944028,0.6528184324031087,0.02394214835021373
1.75,0.9412523229118063,0.6529125232104434,0.02388478120702142
1.8,0.9411926380588026,0.6530025478455673,0.023827945292125757
1.85,0.9411314390359559,0.6530883919274004,0.02377162217535416
1.9000000000000001,0.9410688000533971,0.6531699456772919,0.02371579344599476
1.9500000000000002,0.9410047973395965,0.6532471044425885,0.023660440721751313
2,0.9409395090570708,0.6533197688847215,0.023605545660040958
2.0500000000000003,0.9408730151874419,0.6533878450994739,0.02355108996722622
2.1,0.9408053974279127,0.6534512447588838,0.023497055406561322
2.15,0.9407367390849067,0.6535098852473179,0.023443423804748297
2.2,0.9406671249648366,0.6535636897905986,0.023390177057193446
2.25,0.940596641262115,0.6536125875778706,0.02333729713203967
2.3000000000000003,0.940525375444603,0.6536565138759588,0.023284766073046147
2.35,0.9404534161366768,0.6536954101359461,0.023232566001397715
2.4000000000000004,0.9403808530001024,0.6537292240917003,0.023180679116532703
2.45,0.9403077766129166,0.653757909850097,0.02312908769608432
2.5,0.9402342783465166,0.653781427972689,0.023077774095036554
2.5500000000000003,0.9401604502549162,0.6537997457323751,0.023026720746489867
2.6,0.9400863849083567,0.6538128367204415,0.022975910154399953
2.6500000000000004,0.9400121752950643,0.6538206811727664,0.022925324893566943
2.7,0.9399379147023876,0.6538232661053498,0.022874947608005635
2.75,0.9398636965713068,0.6538205848404228,0.022824761002419074
2.8000000000000003,0.9397896144014809,0.6538126383862006,0.022774747852208555
2.85,0.939715761566595,0.6537994339628007,0.02272489098751697
2.9000000000000004,0.9396422312153807,0.65378098556601,0.02267517329373697
2.95,0.9395691161407823,0.6537573140055597,0.022625577709754555
3,0.9394965086314124,0.653728447034606,0.0225760872267407
3.0500000000000003,0.939424500383637,0.6536944188554314,0.02252668488290135
3.1,0.939353182355358,0.6536552703661256,0.022477353763635587
3.1500000000000004,0.9392826446333677,0.6536110492085473,0.022428077001921332
3.2,0.9392129763796636,0.6535618092098145,0.022378837774671787
3.25,0.939144265511252,0.6535076116451503,0.02232961931349651
3.3000000000000003,0.9390765987800432,0.6534485236871795,0.022280404898506405
3.35,0.9390100615880694,0.6533846188784815,0.022231177863619712
3.4000000000000004,0.9389447378621489,0.6533159770753316,0.022181921601875813
3.45,0.9388807098974543,0.6532426844664188,0.02213261957333681
3.5,0.9388180583619303,0.6531648330333788,0.022083255307492684
3.5500000000000003,0.9387568621229627,0.6530825206836007,0.022033812413994897
3.6,0.938697198120034,0.6529958512013755,0.021984274593675437
3.6500000000000004,0.9386391414116263,0.6529049336708197,0.021934625642462353
3.7,0.9385827646735493,0.6528098834639022,0.021884849484623395
3.75,0.9385281385341808,0.6527108208037461,0.021834930167246205
3.8000000000000003,0.9384753313294886,0.6526078710875692,0.02178485188243241
3.85,0.9384244090006876,0.652501164743761,0.021734598985628645
3.9000000000000004,0.9383754350232156,0.6523908370128788,0.021684156014181905
3.95,0.9383284703277655,0.6522770277577651,0.021633507707667515
4,0.9382835732251167,0.6521598812678776,0.021582639029716764
4.05,0.9382407993352495,0.6520395460576883,0.02153153519121123
4.1000000000000005,0.9382002015208276,0.6519161746594585,0.021480181674781305
4.15,0.9381618298270384,0.651789923417884,0.021428564259702052
4.2,0.9381257314182316,0.6516609522533712,0.021376669051184474
4.25,0.938091950529531,0.6515294244555417,0.021324482506452858
4.3,0.9380605284189472,0.651395506460962,0.02127199146339161
4.3500000000000005,0.9380315033213025,0.6512593676178015,0.021219183171174678
4.4,0.9380049104093124,0.6511211799556699,0.021166045320635075
4.45,0.9379807817586829,0.6509811179501067,0.02111256607566536
4.5,0.9379591463178248,0.6508393582876946,0.021058734104726088
4.55,0.9379400298832922,0.6506960796349583,0.021004538612056173
4.6000000000000005,0.9379234550770694,0.6505514623903429,0.020949969371206592
4.65,0.9379094413303765,0.6504056884473159,0.020895016757033272
4.7,0.937898004871744,0.6502589409625609,0.020839671776937158
4.75,0.9378891587179626,0.6501114040937911,0.020783926105988858
4.800000000000001,0.9378829126716451,0.6499632627772393,0.020727772116308506
4.8500000000000005,0.9378792733218451,0.649814702491966,0.020671202907946443
4.9,0.9378782440483464,0.6496659090143839,0.020614212340554185
4.95,0.9378798250306615,0.6495170681836098,0.020556795062919984
5,0.93788401326105,0.6493683656656296,0.020498946541933113
5.050000000000001,0.9378908025610139,0.6492199867219545,0.020440663090185884
5.1000000000000005,0.9379001836015645,0.6490721159864381,0.020381941891552877
5.15,0.9379121439277845,0.6489249372287518,0.02032278102738807
5.2,0.9379266679865425,0.648778633132973,0.020263179499616275
5.25,0.9379437371577145,0.6486333850769245,0.02020313725246762
5.300000000000001,0.9379633297887999,0.6484893729145921,0.020142655192445524
5.3500000000000005,0.9379854212327876,0.6483467747621926,0.020081735206355693
5.4,0.9380099838891617,0.6482057667881225,0.020020380177279362
5.45,0.9380369872479338,0.6480665230069766,0.019958593998380802
5.5,0.9380663979349896,0.6479292150843093,0.019896381584106355
5.550000000000001,0.9380981797661632,0.6477940121206663,0.019833748880425092
5.6000000000000005,0.9381322937965448,0.6476610804734987,0.01977070287064654
5.65,0.9381686983747374,0.647530583571603,0.019707251579503485
5.7,0.9382073492017772,0.6474026817252835,0.01964340407520697
5.75,0.9382481993906935,0.6472775319494911,0.0195791704683107
5.800000000000001,0.9382911995290164,0.647155287789676,0.019514561907891668
5.8500000000000005,0.9383362977426137,0.6470360991542872,0.019449590575247734
5.9,0.9383834397602369,0.6469201121570268,0.019384269674697713
5.95,0.9384325689840651,0.6468074689523113,0.019318613421528612
6,0.9384836265590484,0.6466983075853012,0.01925263702725659
6.050000000000001,0.9385365513867162,0.6465927617214862,0.019186356708461354
6.1000000000000005,0.9385912803469593,0.6464909608079517,0.019119789599340305
6.15,0.9386477482814312,0.6463930297621091,0.019052953769932317
6.2,0.9387058880399337,0.6462990887822402,0.018985868213886002
6.25,0.9387656307043476,0.6462092535824109,0.01891855275219482
6.300000000000001,0.9388269052875523,0.6461236343115384,0.018851028180275592
6.3500000000000005,0.9388896392447884,0.6460423364825746,0.018783316033978346
6.4,0.938953758387142,0.6459654604837199,0.01871543863122496
6.45,0.93901918695425,0.6458931014431759,0.01864741903892374
6.5,0.9390858477104486,0.6458253491630689,0.018579281026501224
6.550000000000001,0.9391536620296669,0.645762288029714,0.018511049023227366
6.6000000000000005,0.9392225499810731,0.6457039969288058,0.0184427480735311
6.65,0.9392924304155393,0.6456505491663215,0.018374403790406755
6.7,0.939363221052913,0.6456020123951817,0.01830604230702535
6.75,0.9394348385446246,0.6455584483861055,0.018237690237944682
6.800000000000001,0.9395071986306442,0.6455199133661945,0.0181693745972856
6.8500000000000005,0.9395802161843742,0.6454864577255729,0.01810112276537584
6.9,0.9396538052884132,0.6454581258875988,0.018032962441168438
6.95,0.9397278793803082,0.6454349567138917,0.017964921565260014
7,0.9398023512043083,0.6454169822714085,0.01789702831630394
7.050000000000001,0.9398771330702661,0.6454042291095071,0.017829310990234243
7.1000000000000005,0.9399521368749,0.6453967177442703,0.017761797969846414
7.15,0.9400272741920371,0.6453944625982319,0.017694517667992675
7.2,0.9401024563674398,0.6453974718531638,0.017627498464774762
7.25,0.9401775946229171,0.6454057478631277,0.01756076865435141
7.300000000000001,0.9402526001388906,0.6454192868976791,0.01749435638553819
7.3500000000000005,0.9403273841448391,0.6454380790591867,0.017428289603828022
7.4,0.9404018580048195,0.6454621087524092,0.01736259601155739
7.45,0.940475933339171,0.6454913534738758,0.01729730295974459
7.5,0.9405495221013713,0.6455257851815128,0.017232437443336312
7.550000000000001,0.9406225366700538,0.6455653698112261,0.01716802603026817
7.6000000000000005,0.9406948899459494,0.6456100672691203,0.017104094805449332
7.65,0.9407664954657151,0.6456598313428685,0.01704066930332301
7.7,0.9408372674480722,0.6457146101562764,0.016977774496647918
7.75,0.9409071209115276,0.6457743459688677,0.016915434724795494
7.800000000000001,0.9409759717761097,0.6458389751472235,0.016853673638903482
7.8500000000000005,0.9410437368841994,0.6459084286638365,0.01679251420952442
7.9,0.9411103342901135,0.6459826310035653,0.016731978537270296
7.95,0.9411756831481242,0.646061501522259,0.016672087967189234
8,0.9412397038727692,0.6461449540349892,0.016612862993580366
8.05,0.94130231823813,0.6462328968640788,0.01655432321774925
8.1,0.9413634495056574,0.6463252328193724,0.01649648729145303
8.15,0.9414230224088121,0.6464218596617417,0.016439372950908776
8.200000000000001,0.9414809633008292,0.6465226699786991,0.016382996949169157
8.25,0.941537200262571,0.6466275512161809,0.016327375016863738
8.3,0.9415916630557567,0.6467363861706232,0.016272521916098254
8.35,0.9416442835687532,0.6468490521067524,0.016218451211712517
8.4,0.9416949955159867,0.6469654219998996,0.01616517547943367
8.450000000000001,0.9417437346589987,0.6470853642343913,0.016112706207658048
8.5,0.941790438901491,0.6472087427091149,0.016061053777973924
8.55,0.9418350483584517,0.6473354170090547,0.016010227462663264
8.6,0.9418775054345032,0.6474652425505822,0.015960235418476756
8.65,0.9419177549008767,0.6475980707315344,0.015911084683214814
8.700000000000001,0.9419557439705608,0.6477337490864534,0.015862781175197318
8.75,0.9419914223714984,0.6478721214469921,0.015815329695591174
8.8,0.9420247424177247,0.6480130281073468,0.01576873393354633
8.85,0.9420556590783257,0.648156305994612,0.015722996474084924
8.9,0.9420841300440893,0.6483017888439372,0.01567811880867738
8.950000000000001,0.942110115791732,0.6484493073783559,0.01563410134842928
9,0.9421335796455679,0.6485986894931497,0.015590943439793236
9.05,0.9421544878346438,0.6487497604383577,0.01554864338208659
9.1,0.9421728095543881,0.6489023430292005,0.015507198449648254
9.15,0.9421885170154168,0.649056257829934,0.01546660491328842
9.200000000000001,0.9422015854930975,0.6492113233521778,0.015426858064796614
9.25,0.9422119933765302,0.6493673562655765,0.015387952244244503
9.3,0.9422197222118058,0.649524171604762,0.015349880868437978
9.35,0.9422247567424381,0.6496815829822162,0.01531263646140937
9.4,0.9422270849460478,0.6498394028017367,0.015276210686000094
9.450000000000001,0.9422266980661749,0.6499974424699806,0.015240594376249328
9.5,0.9422235906432751,0.6501555126248109,0.015205777572970876
9.55,0.9422177605395434,0.6503134233553601,0.015171749558906659
9.600000000000001,0.9422092089596383,0.65047098441903906,0.01513849889388185
9.65,0.9421979404699602,0.6506280054889663,0.015106013455337405
9.700000000000001,0.9421839630099402,0.6507842963663838,0.015074280473522501
9.75,0.9421672879007311,0.650939667207475,0.015043286569148885
9.8,0.9421479298504204,0.6510939287615514,0.01501301779300021
9.850000000000001,0.9421259069538077,0.6512468926014338,0.014983459664198822
9.9,0.9421012406877052,0.6513983713573844,0.014954597208883109
9.950000000000001,0.9420739559020103,0.651548178948844,0.014926414998256895
10,0.9420440808058942,0.6516961308107413,0.014898897185315178
10.05,0.9420116469492729,0.6518420441353342,0.014872027543650721
10.100000000000001,0.9419766891995116,0.6519857381015848,0.014845789503612683
10.15,0.9419392457144097,0.6521270340986423,0.014820166186866717
10.200000000000001,0.9418993579067584,0.6522657559775143,0.014795140444535686
10.25,0.9418570704083659,0.6524017302633112,0.014770694888431014
10.3,0.9418124310280531,0.6525347863795455,0.014746811923107842
10.350000000000001,0.9417654907034826,0.6526647568808752,0.014723473778311314
10.4,0.9417163034490879,0.6527914776744764,0.014700662538581368
10.450000000000001,0.9416649262985889,0.6529147882416809,0.014678360171733377
10.5,0.9416114192436832,0.653034531854519,0.014656548555581827
10.55,0.9415558451689947,0.6531505557836161,0.014635209502186958
10.600000000000001,0.9414982697787767,0.653262711517708,0.014614324782404988
10.65,0.9414387615216749,0.6533708549677764,0.014593876147195223
10.700000000000001,0.9413773915811733,0.6534748468056537,0.014573845348111522
10.75,0.9413142336095283,0.6535745523314572,0.01455421415435617
10.8,0.9412493637502395,0.6536698418578347,0.014534964369015902
10.850000000000001,0.9411828605812129,0.6537605909626458,0.014516077843435804
10.9,0.9411148048389555,0.6538466802691314,0.014497536485604935
10.950000000000001,0.9410452797812868,0.6539279967048884,0.014479322283032848
11,0.9409743705554772,0.6540044325045988,0.014461417300318309
11.05,0.9409021642940849,0.6540758857998665,0.014443803689269319
11.100000000000001,0.9408287500141329,0.6541422608147307,0.014426463695451043
11.15,0.9407542184856518,0.6542034679827416,0.01440937966146847
11.200000000000001,0.9406786621117534,0.6542594240893195,0.014392534029311638
11.25,0.9406021748058492,0.6543100524073013,0.014375909341202772
11.3,0.9405248518660264,0.6543552828244258,0.014359488239065516
11.350000000000001,0.9404467898467276,0.6543950519623837,0.01434325346272729
11.4,0.9403680864541352,0.6544293034811822,0.014327187849727115
11.450000000000001,0.9402888403411818,0.6544579876998711,0.014311274324884358
11.5,0.9402091510203133,0.6544810619730486,0.014295495898730535
11.55,0.9401291187420138,0.6544984908680074,0.014279835663342538
11.600000000000001,0.9400488443070814,0.6545102456937493,0.014264276779776357
11.65,0.9399684290463487,0.6545163060104385,0.014248802486270088
11.700000000000001,0.9398879745292091,0.6545166580934113,0.014233396075990352
11.75,0.9398075824889256,0.6545112955666167,0.014218040894048213
11.8,0.9397273546812325,0.6545002194792696,0.014202720331115366
11.850000000000001,0.9396473927288292,0.6544834384855442,0.01418741781655391
11.9,0.9395677979944747,0.654460968336966,0.014172116809015985
11.950000000000001,0.9394886714347498,0.6544328321877109,0.014156800790415517
12,0.9394101134566109,0.654399060682336,0.014141453260424283
12.05,0.9393322238239108,0.6543596913697565,0.0141260577293288
12.100000000000001,0.9392551013808792,0.6543147701485265,0.01411059771570179
12.15,0.9391788440454689,0.6542643495765874,0.01409505674162023
12.200000000000001,0.9391035486336611,0.654208489429695,0.014079418329055373
12.25,0.9390293107172639,0.6541472566741503,0.014063665998875407
12.3,0.9389562244518287,0.6540807255283232,0.014047783270849946
12.350000000000001,0.9388843825481858,0.6540089768800931,0.014031753664956162
12.4,0.93881387608853,0.6539320984751779,0.014015560703335886
12.450000000000001,0.938744794382299,0.653850184897086,0.013999187914765739
12.5,0.9386772249824297,0.6537633369319866,0.013982618839571593
12.55,0.938611253190614,0.6536716627629785,0.013965837039811317
12.600000000000001,0.9385469623401566,0.6535752763318332,0.013948826108439567
12.65,0.9384844335444403,0.6534742977490271,0.01393156967959153
12.700000000000001,0.9384237455749427,0.6533688531634024,0.013914051442221846
12.75,0.9383649747692924,0.6532590745413512,0.013896255155476841
12.8,0.9383081949324242,0.6531450994789708,0.013878164665725232
12.850000000000001,0.938253477241704,0.6530270710065424,0.013859763925563326
12.9,0.9382008901565603,0.6529051373850645,0.013841037014695056
12.950000000000001,0.938150499332748,0.6527794518951704,0.013821968162651237
13,0.9381023675413422,0.6526501726189576,0.013802541773303627
13.05,0.9380565545925571,0.6525174622152077,0.0137827424511138
13.100000000000001,0.9380131172644735,0.652381487688497,0.013762555029044546
13.15,0.9379721092367418,0.6522424201527108,0.013741964598049378
13.200000000000001,0.9379335810293176,0.6521004345894723,0.013720956538044154
13.25,0.937897579947997,0.6519557096101188,0.01369951654919801
13.3,0.9378641500281253,0.6518084271827708,0.013677630688547786
13.350000000000001,0.9378333319929434,0.6516587723959504,0.013655285402363394
13.4,0.9378051632132823,0.6515069332052269,0.013632467561501839
13.450000000000001,0.9377796776698788,0.6513531001661536,0.013609164499023657
13.5,0.9377569059231388,0.6511974661746748,0.01358536404722223
13.55,0.9377368750874837,0.6510402262028067,0.013561054575671468
13.600000000000001,0.9377196088106184,0.6508815770362301,0.013536225029177902
13.65,0.9377051272587367,0.650721717017529,0.013510864965091737
13.700000000000001,0.9376934471045335,0.6505608457716253,0.01348496459318276
13.75,0.9376845815216241,0.6503991639450211,0.013458514813373908
13.8,0.9376785401832471,0.6502368729517275,0.013431507252330485
13.850000000000001,0.9376753292655049,0.6500741746871099,0.01340393430431204
13.9,0.9376749514556703,0.6499112712864527,0.01337578916500779
13.950000000000001,0.9376774059643539,0.6497483648701237,0.01334706586682486
14,0.9376826885420158,0.6495856572791335,0.013317759314816803
14.05,0.9376907914999049,0.6494233498236764,0.013287865319805667
14.100000000000001,0.937701703735273,0.6492616430314593,0.013257380630520213
14.15,0.9377154107600043,0.6491007364017999,0.01322630296389082
14.200000000000001,0.9377318947327878,0.648940828169541,0.01319463103270269
14.25,0.9377511344964209,0.6487821150556334,0.013162364573592848
14.3,0.9377731056176538,0.6486247920348449,0.01312950437122946
14.350000000000001,0.93779778043063855,0.6484690521051512,0.013096052280627435
14.4,0.937825128083746,0.6483150860612704,0.013062011247151258
14.450000000000001,0.9378551145895698,0.648163082272909,0.01302738532402026
14.5,0.9378877028779865,0.6480132264679206,0.012992179687196582
14.55,0.9379228528521386,0.6478657015205352,0.012956400647545347
14.600000000000001,0.9379605214452326,0.6477206872514362,0.012920055659904112
