time,e,omega,d
0,0.942,0.6482532304803152,0.02633076200788132
0.05,0.9420204591954446,0.6482893025829084,0.026245474790946167
0.1,0.9420403529095288,0.6483257586993634,0.026160686580653313
0.15000000000000002,0.942059674116316,0.6483625884048079,0.026076396852463584
0.2,0.9420784168105021,0.6483997824718681,0.025992605097920785
0.25,0.9420965731548488,0.6484373284753816,0.025909310581977662
0.30000000000000004,0.9421141369576885,0.6484752160364995,0.025826512620051867
0.35000000000000003,0.9421311019151875,0.6485134342231634,0.025744210446124804
0.4,0.9421474619113163,0.6485519719852892,0.025662403233707685
0.45,0.9421632110187548,0.6485908181576042,0.02558109009625896
0.5,0.9421783435013064,0.6486299614633563,0.02550027008728538
0.55,0.9421928538160129,0.6486693905177363,0.02541994220052277
0.6000000000000001,0.9422067366029618,0.6487090938377771,0.025340105373870856
0.65,0.9422199867266124,0.6487490598247667,0.02526075847763298
0.7000000000000001,0.94223259923468,0.6487892767916188,0.025181900328011275
0.75,0.9422445693760567,0.6488297329572582,0.025103529682458745
0.8,0.9422558926040246,0.6488704164496324,0.025025645239597324
0.8500000000000001,0.942266564576727,0.648911315310112,0.02494824563998243
0.9,0.9422765811588872,0.6489524174971969,0.024871329466492502
0.9500000000000001,0.9422859384234767,0.6489937108902567,0.024794895244744014
1,0.9422946326533188,0.6490351832933032,0.024718941443533697
1.05,0.9423026603426312,0.6490768224387946,0.024643466475307598
1.1,0.942310018198456,0.6491186159913429,0.02456846869663959
1.1500000000000001,0.9423167031422081,0.6491605515519325,0.02449394640879767
1.2000000000000002,0.9423227123109128,0.6492026166615388,0.024419897858254963
1.25,0.9423280430584677,0.6492447988049947,0.02434632123725194
1.3,0.9423326929569058,0.6492870854150601,0.024273214684404975
1.35,0.9423366597975286,0.649329463876364,0.02420057628531847
1.4000000000000001,0.9423399415919802,0.6493719215293929,0.02412840407322155
1.4500000000000002,0.9423425365732538,0.6494144456745046,0.024056696029626547
1.5,0.9423444431966266,0.6494570235759632,0.023985450085007985
1.55,0.9423456601405255,0.6494996424659957,0.023914664119501196
1.6,0.9423461863073196,0.6495422895488643,0.02384433596361989
1.6500000000000001,0.9423460208240417,0.6495849520049588,0.023774463398991863
1.7000000000000002,0.942345163043036,0.6496276169949037,0.02370504415911211
1.75,0.9423436125425323,0.6496702716636805,0.02363607593011242
1.8,0.9423413691271474,0.6497129031447636,0.023567556351546805
1.85,0.9423384328283101,0.6497554985642684,0.023499483017191885
1.9000000000000001,0.9423348039046122,0.6497980450451102,0.023431853475861367
1.9500000000000002,0.9423304828420845,0.6498405297111739,0.023364665232233923
2,0.9423254703543946,0.6498829396914901,0.023297915747693562
2.0500000000000003,0.9423197673829705,0.6499252621244199,0.023231602441181685
2.1,0.942313375097046,0.6499674841618445,0.02316572269006006
2.15,0.9423062948936292,0.6500095929733595,0.02310027383098384
2.2,0.9422985283973926,0.6500515757504717,0.023035253160783815
2.25,0.9422900774604871,0.6500934197107981,0.022970657937357173
2.3000000000000003,0.9422809441622755,0.6501351121022644,0.022906485380565805
2.35,0.9422711308089885,0.6501766402073028,0.02284273267314145
2.4000000000000004,0.9422606399333028,0.650217991347047,0.022779396961596914
2.45,0.9422494742938381,0.6502591528855233,0.022716475357142468
2.5,0.9422376368745772,0.6503001122338359,0.022653964936606697
2.5500000000000003,0.9422251308842053,0.6503408568543465,0.022591862743360995
2.6,0.9422119597553708,0.6503813742648439,0.022530165788247014
2.6500000000000004,0.9421981271438656,0.6504216520427055,0.022468871050506184
2.7,0.9421836369277278,0.6504616778290473,0.022407975478710634
2.75,0.9421684932062626,0.6505014393328608,0.022347475991694784
2.8000000000000003,0.9421527002989858,0.6505409243351364,0.022287369479486854
2.85,0.942136262744486,0.6505801206929721,0.022227652804239564
2.9000000000000004,0.9421191852992097,0.6506190163436639,0.022168322801159414
2.95,0.942101472936165,0.6506575993087791,0.022109376279433685
3,0.9420831308435481,0.6506958576982097,0.022050810023154763
3.0500000000000003,0.9420641644232902,0.6507337797142043,0.021992620792240864
3.1,0.9420445792895258,0.6507713536553777,0.021934805323352707
3.1500000000000004,0.9420243812669827,0.6508085679206969,0.021877360330805447
3.2,0.9420035763892952,0.6508454110134406,0.021820282507475284
3.25,0.9419821708972378,0.650881871545133,0.02176356852570021
3.3000000000000003,0.9419601712368837,0.6509179382394483,0.021707215038174257
3.35,0.9419375840576848,0.6509535999360861,0.021651218678834794
3.4000000000000004,0.9419144162104767,0.6509888455946158,0.021595576063742305
3.45,0.9418906747454071,0.6510236642982872,0.021540283791952178
3.5,0.9418663669097893,0.6510580452578087,0.021485338446378018
3.5500000000000003,0.9418415001458811,0.6510919778150891,0.021430736594646078
3.6,0.9418160820885889,0.6511254514469424,0.02137647478994029
3.6500000000000004,0.9417901205630996,0.6511584557687556,0.021322549571837605
3.7,0.9417636235824388,0.6511909805381146,0.02126895746713317
3.75,0.9417365993449563,0.651223015658392,0.021215694990655072
3.8000000000000003,0.9417090562317427,0.6512545511822898,0.0211627586460682
3.85,0.9416810028039732,0.6512855773153401,0.021110144926667077
3.9000000000000004,0.9416524478001821,0.6513160844193595,0.021057850316157218
3.95,0.9416234001334699,0.6513460630158581,0.02100587128942487
4,0.941593868888641,0.6513755037893996,0.02095420431329483
4.05,0.9415638633192753,0.6514043975909124,0.020902845847276242
4.1000000000000005,0.9415333928447326,0.6514327354409511,0.02085179234429601
4.15,0.9415024670470938,0.6514605085329052,0.020801040251419853
4.2,0.9414710956680373,0.651487708236154,0.020750586010560762
4.25,0.9414392886056512,0.6515143260991694,0.020700426059174798
4.3,0.9414070559111861,0.6515403538525606,0.020650556830944106
4.3500000000000005,0.9413744077857454,0.6515657834120627,0.02060097475644715
4.4,0.9413413545769176,0.6515906068814677,0.0205516762638161
4.45,0.9413079067753487,0.6516148165554948,0.020502657779381327
4.5,0.9412740750112584,0.65163840492260094,0.020453915728303133
4.55,0.941239870050901,0.6516613646677288,0.020405446535190618
4.6000000000000005,0.9412053027929714,0.651683688674992,0.020357246624707854
4.65,0.9411703842649575,0.6517053700302966,0.020309312422167436
4.7,0.941135125619441,0.6517264020238959,0.020261640354111456
4.75,0.9410995381303487,0.6517467781528792,0.020214226848880114
4.800000000000001,0.9410636331891534,0.6517664921235937,0.02016706833716809
4.8500000000000005,0.9410274223010289,0.6517855378539965,0.02012016125256885
4.9,0.9409909170809565,0.6518039094759375,0.020073502032107077
4.95,0.9409541292497898,0.6518216013373705,0.020027087116759497
5,0.9409170706302743,0.6518386080044936,0.019980912951964226
5.050000000000001,0.9408797531430262,0.651854924263815,0.019934975988119098
5.1000000000000005,0.9408421888024712,0.6518705451241472,0.019889272681068992
5.15,0.9408043897127452,0.651885465818524,0.019843799492582703
5.2,0.9407663680635576,0.6518996818060423,0.019798552890819474
5.25,0.9407281361260204,0.6519131887736281,0.019753529350785667
5.300000000000001,0.9406897062484426,0.6519259826377242,0.019708725354781832
5.3500000000000005,0.940651090852094,0.6519380595458983,0.019664137392840564
5.4,0.940612302426938,0.6519494158783744,0.019619761963155513
5.45,0.9405733535273371,0.6519600482494812,0.019575595572501978
5.5,0.9405342567677298,0.6519699535090213,0.019531634736649428
5.550000000000001,0.9404950248182854,0.6519791287435589,0.019487875980766407
5.6000000000000005,0.9404556704005325,0.6519875712776237,0.019444315839818246
5.65,0.9404162062829687,0.6519952786748333,0.01940095085895802
5.7,0.9403766452766493,0.6520022487389309,0.01935777759391114
5.75,0.9403370002307582,0.6520084795147392,0.01931479261135412
5.800000000000001,0.9402972840281635,0.6520139692890292,0.019271992489287973
5.8500000000000005,0.9402575095809587,0.652018716591304,0.019229373817406616
5.9,0.9402176898259909,0.6520227201944958,0.01918693319746085
5.95,0.9401778377203791,0.6520259791155771,0.019144667243618355
6,0.940137966237024,0.6520284926160856,0.019102572582820197
6.050000000000001,0.9400980883601096,0.6520302602025604,0.019060645855134315
6.1000000000000005,0.9400582170806021,0.6520312816268918,0.019018883714106503
6.15,0.9400183653917434,0.6520315568865833,0.018977282827109334
6.2,0.9399785462845448,0.6520310862249239,0.018935839875689562
6.25,0.93993877274328,0.6520298701310733,0.018894551555914445
6.300000000000001,0.9398990577409818,0.6520279093400583,0.018853414578717503
6.3500000000000005,0.9398594142349425,0.6520252048326803,0.018812425670244184
6.4,0.9398198551622201,0.6520217578353331,0.018771581572197896
6.45,0.9397803934351526,0.6520175698197326,0.01873087904218691
6.5,0.939741041936883,0.6520126425025573,0.018690314854072583
6.550000000000001,0.939701813516894,0.6520069778449992,0.018649885798319357
6.6000000000000005,0.9396627209865588,0.6520005780522262,0.018609588682346957
6.65,0.9396237771147044,0.6519934455727558,0.018569420330885298
6.7,0.9395849946231939,0.6519855830977389,0.0185293775863325
6.75,0.9395463861825274,0.6519769935601565,0.018489457309116372
6.800000000000001,0.9395079644074628,0.6519676801339268,0.01844965637805987
6.8500000000000005,0.9394697418526596,0.6519576462329252,0.018409971690750888
6.9,0.9394317310083475,0.651946895509915,0.01837040016391672
6.95,0.9393939442960193,0.6519354318553927,0.018330938733803655
7,0.9393563940641534,0.6519232593963445,0.018291584356561946
7.050000000000001,0.9393190925839642,0.6519103824949174,0.0182523340086366
7.1000000000000005,0.9392820520451848,0.6518968057470028,0.018213184687164232
7.15,0.9392452845518813,0.6518825339807366,0.01817413341037635
7.2,0.9392088021183027,0.6518675722549115,0.01813517721800926
7.25,0.939172616664766,0.6518519258573081,0.018096313171720987
7.300000000000001,0.9391367400135792,0.6518356003029394,0.018057538355515355
7.3500000000000005,0.9391011838850037,0.651818601332214,0.018018849876173502
7.4,0.9390659598932577,0.6518009349090168,0.017980244863693054
7.45,0.9390310795425614,0.6517826072187073,0.01794172047173507
7.5,0.9389965542232264,0.6517636246660382,0.01790327387807899
7.550000000000001,0.9389623952077911,0.6517439938729941,0.017864902285085745
7.6000000000000005,0.9389286136472016,0.6517237216765507,0.01782660292016906
7.65,0.9388952205670417,0.6517028151263569,0.017788373036275132
7.7,0.9388622268638128,0.6516812814823392,0.017750209912370703
7.75,0.9388296433012644,0.6516591282122305,0.017712110853939634
7.800000000000001,0.9387974805067768,0.6516363629890247,0.01767407319348792
7.8500000000000005,0.938765748967798,0.651612993688356,0.017636094291057246
7.9,0.938734459028335,0.6515890283858075,0.017598171534746968
7.95,0.938703620885502,0.6515644753541465,0.01756030234124456
8,0.9386732445861257,0.6515393430604915,0.017522484156364374
8.05,0.9386433400234089,0.6515136401634085,0.01748471445559467
8.1,0.9386139169336541,0.6514873755099405,0.017446990744652755
8.15,0.9385849848930486,0.6514605581325705,0.01740931056004813
8.200000000000001,0.93855655331451,0.6514331972461194,0.017371671469653408
8.25,0.9385286314445964,0.6514053022445796,0.017334071073282865
8.3,0.9385012283604798,0.651376882697888,0.01729650700327837
8.35,0.9384743529669834,0.6513479483486357,0.017258976925102452
8.4,0.9384480139936877,0.6513185091087204,0.017221478537938224
8.450000000000001,0.9384222199921001,0.6512885750559386,0.01718400957529587
8.5,0.9383969793328938,0.6512581564305246,0.017146567805625422
8.55,0.9383723002032156,0.6512272636316306,0.017109151032935355
8.6,0.9383481906040619,0.6511959072137562,0.01707175709741681
8.65,0.9383246583477253,0.6511640978831246,0.017034383876072874
8.700000000000001,0.938301711055311,0.6511318464940095,0.016997029283352644
8.75,0.9382793561543268,0.6510991640450121,0.016959691271789548
8.8,0.938257600876342,0.6510660616752919,0.01692236783264351
8.85,0.9382364522547221,0.651032550660751,0.01688505699654647
8.9,0.9382159171224335,0.650998642410176,0.016847756834150712
8.950000000000001,0.9381960021099248,0.6509643484613358,0.016810465456779593
9,0.9381767136430808,0.6509296804770403,0.016773181017079995
9.05,0.9381580579412505,0.6508946502411593,0.01673590170967601
9.1,0.9381400410153522,0.6508592696546054,0.016698625771823315
9.15,0.9381226686660521,0.6508235507312784,0.01666135148406357
9.200000000000001,0.9381059464820193,0.6507875055939794,0.01662407717087822
9.25,0.9380898798382572,0.6507511464702902,0.016586801201341195
9.3,0.938074473894511,0.6507144856884236,0.016549521989769698
9.35,0.9380597335937516,0.6506775356730433,0.016512237996372536
9.4,0.9380456636607359,0.6506403089410583,0.01647494772789527
9.450000000000001,0.9380322686006458,0.6506028180973906,0.016437649738261527
9.5,0.9380195526978015,0.6505650758307201,0.016400342629209773
9.55,0.9380075200144541,0.6505270949092068,0.016363025050924813
9.600000000000001,0.937996174389655,0.6504888881761924,0.016325695702663297
9.65,0.9379855194382014,0.6504504685458843,0.016288353333372585
9.700000000000001,0.9379755585496606,0.6504118489990208,0.016250996742302116
9.75,0.9379662948874702,0.6503730425785232,0.01621362477960663
9.8,0.9379577313881162,0.65033406238513225,0.01617623634694042
9.850000000000001,0.9379498707603882,0.6502949215730328,0.016138830398041974
9.9,0.9379427154847103,0.6502556333454694,0.01610140593930808
9.950000000000001,0.9379362678125509,0.6502162109503519,0.01606396203035679
10,0.9379305297659065,0.6501766676758541,0.016026497784578406
10.05,0.9379255031368638,0.6501370168460073,0.015989012369673674
10.100000000000001,0.9379211894872376,0.6500972718162894,0.015951505008178577
10.15,0.937917590148283,0.6500574459692119,0.015913974977974744
10.200000000000001,0.9379147062204853,0.650017552709906,0.015876421612784918
10.25,0.9379125385734238,0.6499776054617099,0.015838844302652595
10.3,0.9379110878457105,0.6499376176617577,0.015801242494405097
10.350000000000001,0.9379103544450037,0.6498976027565728,0.015763615692099407
10.4,0.937910338548096,0.6498575741976665,0.015725963457449876
10.450000000000001,0.9379110401010747,0.6498175454371432,0.015688285410237212
10.5,0.9379124588195571,0.6497775299233141,0.015650581228697932
10.55,0.9379145941889974,0.6497375410963204,0.015612850649893576
10.600000000000001,0.937917445465066,0.6496975923837689,0.015575093470058964
10.65,0.9379210116741017,0.6496576971963786,0.015537309544928843
10.700000000000001,0.9379252916136337,0.6496178689236419,0.015499498790042155
10.75,0.9379302838529752,0.6495781209295028,0.015461661181023321
10.8,0.9379359867338873,0.6495384665480487,0.01542379675383985
10.850000000000001,0.9379423983713123,0.6494989190792236,0.01538590560503561
10.9,0.937949516654175,0.6494594917845591,0.015347987891939197
10.950000000000001,0.937957339246255,0.6494201978829258,0.01531004383284666
11,0.9379658635871239,0.6493810505463083,0.015272073707178162
11.05,0.9379750868931515,0.6493420628956019,0.01523407785560782
11.100000000000001,0.9379850061585779,0.649303247996435,0.015196056680166301
11.15,0.9379956181566522,0.6492646188550167,0.015158010644315576
11.200000000000001,0.9380069194408345,0.6492261884140113,0.015119940272995276
11.25,0.9380189063460646,0.6491879695484414,0.01508184615264026
11.3,0.9380315749900929,0.6491499750616202,0.01504372893116881
11.350000000000001,0.938044921274876,0.6491122176811138,0.015005589317941099
11.4,0.9380589408880327,0.6490747100547356,0.014967428083687397
11.450000000000001,0.9380736293043624,0.6490374647465728,0.01492924606040573
11.5,0.9380889817874262,0.6490004942330474,0.014891044141228518
11.55,0.9381049933911849,0.648963810899011,0.0148528232802579
11.600000000000001,0.938121658961699,0.6489274270338763,0.014814584492369394
11.65,0.938138973138886,0.6488913548277847,0.014776328852983587
11.700000000000001,0.9381569303583365,0.648855606367812,0.014738057497805624
11.75,0.9381755248531864,0.6488201936342135,0.014699771622532188
11.8,0.9381947506560465,0.6487851284967069,0.014661472482525816
11.850000000000001,0.9382146016009866,0.6487504227107981,0.014623161392456327
11.9,0.9382350713255747,0.6487160879141474,0.014584839725909229
11.950000000000001,0.9382561532729712,0.6486821356229776,0.014546508914960943
12,0.9382778406940742,0.6486485772285268,0.014508170449720779
12.05,0.9383001266497192,0.6486154239935439,0.014469825877839595
12.100000000000001,0.9383230040129289,0.6485826870488303,0.01443147680398506
12.15,0.9383464654712148,0.648550377389826,0.01439312488928356
12.200000000000001,0.9383705035289281,0.648518505873244,0.014354771850728759
12.25,0.9383951105096595,0.64848708321375,0.01431641946055682
12.3,0.9384202785586881,0.6484561199806919,0.014278069545588464
12.350000000000001,0.9384459996454778,0.6484256265948768,0.0142397239865379
12.4,0.9384722655662191,0.6483956133253992,0.014201384717288795
12.450000000000001,0.938499067946418,0.648366090286517,0.014163053724137483
12.5,0.9385263982435301,0.6483370674345805,0.014124733045003602
12.55,0.938554247749638,0.6483085545650117,0.014086424768608405
12.600000000000001,0.9385826075941726,0.6482805613093368,0.014048131033620999
12.65,0.9386114687466771,0.6482530971322705,0.014009854027772849
12.700000000000001,0.9386408220196125,0.6482261713288546,0.013971595986940834
12.75,0.9386706580712045,0.6481997930216498,0.01393335919419926
12.8,0.9387009674083303,0.6481739711579825,0.013895145978841178
12.850000000000001,0.9387317403894441,0.6481487145072476,0.01385695871536948
12.9,0.9387629672275424,0.6481240316582653,0.013818799822458164
12.950000000000001,0.938794637993166,0.6480999310166954,0.013780671761884298
13,0.9388267426174395,0.6480764208025082,0.013742577037431196
13.05,0.938859270895146,0.6480535090475122,0.013704518193763266
13.100000000000001,0.9388922124878384,0.6480312035929404,0.013666497815273227
13.15,0.9389255569269839,0.6480095120870935,0.013628518524902142
13.200000000000001,0.9389592936171427,0.647988441983043,0.013590582982933006
13.25,0.93899341183918,0.6479680005363933,0.013552693885758488
13.3,0.9390279007535084,0.6479481948031027,0.01351485396462347
13.350000000000001,0.9390627494033641,0.647929031637365,0.01347706598434316
13.4,0.9390979467181103,0.6479105176895511,0.01343933274199742
13.450000000000001,0.9391334815165736,0.6478926594042117,0.013401657065602118
13.5,0.9391693425104065,0.647875463018141,0.01336404181275823
13.55,0.9392055183074794,0.6478589345585023,0.01332648986927953
13.600000000000001,0.939241997415299,0.6478430798410147,0.013289004147799637
13.65,0.9392787682444536,0.647827904468203,0.013251587586359317
13.700000000000001,0.9393158191120836,0.6478134138277095,0.013214243146974823
13.75,0.9393531382453778,0.6477996130906691,0.013176973814188232
13.8,0.9393907137850915,0.6477865072101473,0.013139782593600612
13.850000000000001,0.9394285337890903,0.647774100919642,0.013102672510388965
13.9,0.9394665862359145,0.6477623987316489,0.013065646607807877
13.950000000000001,0.9395048590283662,0.647751404936291,0.013028707945676846
14,0.939543339997116,0.6477411236000127,0.012991859598854195
14.05,0.9395820169043309,0.6477315585643382,0.012955104655698605
14.100000000000001,0.9396208774473208,0.6477227134446946,0.012918446216519257
14.15,0.9396599092622029,0.6477145916293008,0.012881887392015581
14.200000000000001,0.9396990999275846,0.6477071962781208,0.012845431301707597
14.25,0.9397384369682624,0.6477005303218831,0.012809081072357967
14.3,0.9397779078589371,0.6476945964611657,0.012772839836386708
14.350000000000001,0.9398175000279436,0.6476893971655465,0.012736710730279653
14.4,0.9398572008609963,0.6476849346728213,0.012700696892991779
14.450000000000001,0.9398969977049458,0.6476812109882857,0.012664801464346325
14.5,0.9399368778715508,0.6476782278840857,0.012629027583430926
14.55,0.9399768286412599,0.6476759868986334,0.012593378386991738
14.600000000000001,0.9400168372670051,0.6476744893360903,0.012557857007826707
