time,e,omega,d
0,0.942,0.6482848842903546,0.02633076200788132
0.05,0.9420221626928631,0.6483226177094842,0.026245000842993856
0.1,0.94204372434493,0.648360777679993,0.0261597517137397
0.15000000000000002,0.9420646772198762,0.6483993533087807,0.02607501419740485
0.2,0.9420850146965994,0.6484383349480088,0.025990787870465847
0.25,0.9421047281238369,0.6484777095990781,0.02590707210633505
0.30000000000000004,0.9421238106516204,0.6485174663935019,0.025823866302833207
0.35000000000000003,0.9421422552960071,0.648557593877083,0.025741169775504075
0.4,0.9421600552691582,0.6485980804642358,0.02565898177428419
0.45,0.9421772039803803,0.6486389144409129,0.02557730148394173
0.5,0.9421936950388112,0.6486800839683871,0.025496128024164726
0.55,0.9422095222557805,0.6487215770867375,0.025415460449739413
0.6000000000000001,0.9422246796342794,0.6487633817256309,0.025335297754806984
0.65,0.9422391614123823,0.6488054856841685,0.025255638860073565
0.7000000000000001,0.9422529620203709,0.6488478766612494,0.02517648262744853
0.75,0.942266076099635,0.6488905422489226,0.02509782785498311
0.8,0.9422784985061994,0.6489334699353888,0.02501967327676542
0.8500000000000001,0.9422902243113778,0.6489766471095649,0.02494201756373654
0.9,0.9423012488037364,0.6490200610648692,0.024864859324099625
0.9500000000000001,0.9423115674910062,0.6490636990030421,0.024788197103757337
1,0.9423211761019308,0.6491075480379996,0.02471202938677951
1.05,0.942330070588051,0.6491515951997217,0.024636354595900512
1.1,0.9423382471253704,0.6491958274380425,0.024561171093027894
1.1500000000000001,0.9423457021161683,0.6492402316269643,0.024486477179845617
1.2000000000000002,0.9423524321904593,0.6492847945683603,0.024412271098359563
1.25,0.9423584342074934,0.649329502995931,0.024338551031498706
1.3,0.9423637052572662,0.6493743435793711,0.024265315103766703
1.35,0.9423682426618879,0.6494193029284071,0.024192561381898296
1.4000000000000001,0.9423720439768948,0.6494643675968836,0.02412028787554295
1.4500000000000002,0.9423751069924909,0.6495095240868781,0.024048492537972713
1.5,0.9423774297347186,0.6495547588528392,0.023977173266812816
1.55,0.9423790104665569,0.6496000583057484,0.02390632790479419
1.6,0.9423798476889459,0.6496454088173016,0.023835954240527035
1.6500000000000001,0.9423799401417391,0.6496907967241115,0.023766050009294614
1.7000000000000002,0.9423792868045795,0.6497362083319279,0.02369661289386636
1.75,0.9423778868977015,0.6497816299198779,0.02362764052532942
1.8,0.9423757398826572,0.649827047744719,0.023559130483937752
1.85,0.9423728454629652,0.6498724480451118,0.0234910802999779
1.9000000000000001,0.9423692035846835,0.6499178170459031,0.023423487454650515
1.9500000000000002,0.9423648144369038,0.6499631409624248,0.02335634938096669
2,0.9423596784521681,0.6500084060048019,0.023289663464658272
2.0500000000000003,0.9423537963068066,0.6500535983822736,0.023223427045101167
2.1,0.9423471689211957,0.6500987043075217,0.023157637416250744
2.15,0.9423397974599368,0.6501437100010089,0.02309229182758845
2.2,0.9423316833319545,0.650188601695322,0.02302738748507868
2.25,0.942322828190514,0.650233365639522,0.022962921552134995
2.3000000000000003,0.9423132339331585,0.650277988103499,0.022898891150594805
2.35,0.9423029027015626,0.650322455382329,0.022835293361701595
2.4000000000000004,0.9422918368813068,0.6503667538006334,0.02277212522709376
2.45,0.9422800391015679,0.6504108697169395,0.022709383749799212
2.5,0.9422675122347274,0.65045478952804,0.022647065895234835
2.5500000000000003,0.9422542593958971,0.6504984996733505,0.022585168592209902
2.6,0.9422402839423621,0.650541986639265,0.0225236887339326
2.6500000000000004,0.9422255894729401,0.6505852369635056,0.0224626231790188
2.7,0.9422101798272571,0.6506282372394684,0.022401968752502242
2.75,0.9421940590849406,0.6506709741205615,0.022341722246845205
2.8000000000000003,0.9421772315647281,0.6507134343245354,0.02228188042294901
2.85,0.9421597018234923,0.6507556046378037,0.022222440011163348
2.9000000000000004,0.9421414746551823,0.6507974719197545,0.02216339771229381
2.95,0.9421225550896817,0.650839023107048,0.02210475019860671
3,0.9421029483915814,0.6508802452179034,0.022046494114830555
3.0500000000000003,0.9420826600588708,0.6509211253563698,0.021988626079153282
3.1,0.9420616958215432,0.6509616507165821,0.021931142684214696
3.1500000000000004,0.9420400616401189,0.651001808587,0.02187404049809325
3.2,0.9420177637040846,0.6510415863546299,0.02181731606528663
3.25,0.9419948084302497,0.6510809715092257,0.021760965907685316
3.3000000000000003,0.9419712024610194,0.6511199516474704,0.021704986525538632
3.35,0.9419469526625847,0.6511585144771354,0.02164937439841258
3.4000000000000004,0.9419220661230306,0.6511966478212161,0.021594125986138867
3.45,0.9418965501503623,0.6512343396220447,0.021539237729754575
3.5,0.9418704122704487,0.6512715779453753,0.021484706052431923
3.5500000000000003,0.9418436602248845,0.6513083509844432,0.02143052736039755
3.6,0.9418163019687735,0.6513446470639965,0.021376698043840927
3.6500000000000004,0.9417883456684281,0.6513804546442965,0.0213232144778113
3.7,0.9417597996989908,0.6514157623250889,0.0212700730231028
3.75,0.9417306726419764,0.651450558849542,0.02121727002712728
3.8000000000000003,0.9417009732827343,0.6514848331081516,0.02116480182477448
3.85,0.9416707106078331,0.6515185741426122,0.021112664739259174
3.9000000000000004,0.9416398938023675,0.6515517711496506,0.021060855082954945
3.95,0.9416085322471879,0.6515844134848233,0.021009369158214285
4,0.9415766355160545,0.6516164906662755,0.020958203258174737
4.05,0.9415442133727149,0.6516479923784592,0.02090735366755086
4.1000000000000005,0.9415112757679079,0.6516789084758106,0.02085681666341176
4.15,0.9414778328362932,0.6517092289863857,0.020806588515943993
4.2,0.9414438948933072,0.651738944115451,0.02075666548919967
4.25,0.9414094724319486,0.6517680442490289,0.020707043841829753
4.3,0.941374576119491,0.6517965199573977,0.02065771982780218
4.3500000000000005,0.9413392167941258,0.6518243619985428,0.020608689697105016
4.4,0.9413034054615365,0.6518515613215586,0.020559949696434425
4.45,0.9412671532914045,0.6518781090700011,0.020511496069867467
4.5,0.9412304716138475,0.6519039965851866,0.020463325059519775
4.55,0.9411933719157926,0.651929215409439,0.020415432906188087
4.6000000000000005,0.9411558658372835,0.6519537572892814,0.020367815849977787
4.65,0.9411179651677261,0.6519776141785719,0.02032047013091545
4.7,0.9410796818420692,0.6520007782415823,0.020273391989546592
4.75,0.9410410279369263,0.6520232418560179,0.02022657766751874
4.800000000000001,0.941002015666636,0.6520449976159771,0.02018002340815
4.8500000000000005,0.9409626573792645,0.6520660383348498,0.02013372545698333
4.9,0.9409229655525518,0.6520863570481525,0.020087680062326776
4.95,0.9408829527897999,0.6521059470163002,0.02004188347577985
5,0.9408426318157096,0.6521248017273114,0.019996331952746412
5.050000000000001,0.9408020154721615,0.6521429148994466,0.019951021752934322
5.1000000000000005,0.9407611167139484,0.6521602804837788,0.01990594914084219
5.15,0.9407199486044556,0.6521768926666948,0.019861110386233553
5.2,0.9406785243112944,0.6521927458723237,0.019816501764598916
5.25,0.940636857101888,0.6522078347648945,0.019772119557605976
5.300000000000001,0.9405949603390129,0.6522221542510198,0.01972796005353848
5.3500000000000005,0.9405528474762967,0.6522356994819036,0.01968401954772416
5.4,0.9405105320536745,0.6522484658554734,0.019640294342952194
5.45,0.9404680276928041,0.652260449018434,0.019596780749880586
5.5,0.9404253480924445,0.6522716448682431,0.01955347508743413
5.550000000000001,0.9403825070237969,0.652282049555005,0.01951037368319326
5.6000000000000005,0.940339518325811,0.6522916594832847,0.019467472873774455
5.65,0.940296395900459,0.6523004713138371,0.01942476900520264
5.7,0.9402531537079777,0.6523084819652529,0.019382258433276192
5.75,0.9402098057620821,0.65231568861552,0.019339937523925113
5.800000000000001,0.9401663661251514,0.6523220887034963,0.01929780265356281
5.8500000000000005,0.9401228489033893,0.6523276799302964,0.0192558502094323
5.9,0.9400792682419613,0.6523324602605886,0.01921407658994719
5.95,0.9400356383201107,0.6523364279238021,0.01917247820502821
6,0.9399919733462541,0.6523395814152428,0.019131051476435765
6.050000000000001,0.9399482875530601,0.6523419194971171,0.019089792838099223
6.1000000000000005,0.939904595192513,0.652343441199462,0.01904869873644349
6.15,0.9398609105309611,0.6523441458209811,0.0190077656307135
6.2,0.9398172478441559,0.6523440329297863,0.018966989993297285
6.25,0.9397736214122802,0.652343102364041,0.01892636831004815
6.300000000000001,0.9397300455149693,0.6523413542325089,0.018885897080606676
6.3500000000000005,0.9396865344263277,0.652338788915003,0.018845572818723122
6.4,0.9396431024099411,0.6523354070627365,0.01880539205258078
6.45,0.9395997637138895,0.6523312095985746,0.01876535132512106
6.5,0.9395565325657587,0.6523261977171849,0.0187254471943707
6.550000000000001,0.9395134231676571,0.652320372885089,0.018685676233771896
6.6000000000000005,0.9394704496912368,0.6523137368406102,0.018646035032515787
6.65,0.9394276262727228,0.6523062915937214,0.018606520195880005
6.7,0.9393849670079503,0.6522980394257887,0.018567128345570758
6.75,0.9393424859474152,0.6522889828892134,0.01852785612007009
6.800000000000001,0.9393001970913375,0.65227912480697,0.018488700174988795
6.8500000000000005,0.9392581143847405,0.6522684682720407,0.018449657183425592
6.9,0.9392162517125489,0.6522570166467458,0.01841072383633304
6.95,0.9391746228947054,0.6522447735619706,0.018371896842890697
7,0.9391332416813117,0.6522317429162868,0.01833317293088603
7.050000000000001,0.9390921217477912,0.6522179288749714,0.01829454884710353
7.1000000000000005,0.9390512766900803,0.6522033358689198,0.0182560213577225
7.15,0.9390107200198464,0.6521879685934544,0.01821758724872397
7.2,0.9389704651597386,0.652171832007031,0.01817924332630704
7.25,0.9389305254386677,0.6521549313298393,0.018140986417315208
7.300000000000001,0.9388909140871243,0.6521372720423003,0.01810281336967293
7.3500000000000005,0.9388516442325308,0.6521188598834607,0.01806472105283277
7.4,0.9388127288946327,0.6520997008492841,0.018026706358233474
7.45,0.9387741809809318,0.6520798011908399,0.017988766199769312
7.5,0.9387360132821595,0.6520591674123895,0.017950897514270855
7.550000000000001,0.9386982384677962,0.6520378062693721,0.017913097261997465
7.6000000000000005,0.9386608690816365,0.6520157247662901,0.017875362427141793
7.65,0.938623917537402,0.6519929301544931,0.017837690018346303
7.7,0.9385873961144052,0.6519694299298643,0.01780007706923215
7.75,0.9385513169532635,0.6519452318304076,0.0177625206389404
7.800000000000001,0.9385156920516692,0.6519203438337392,0.017725017812685786
7.8500000000000005,0.9384805332602114,0.6518947741544804,0.017687565702322994
7.9,0.938445852278259,0.6518685312415579,0.017650161446925574
7.95,0.9384116606498988,0.6518416237754076,0.017612802213377403
8,0.9383779697599354,0.6518140606650886,0.01757548519697677
8.05,0.9383447908299537,0.6517858510453028,0.017538207622052947
8.1,0.9383121349144435,0.6517570042733264,0.01750096674259514
8.15,0.9382800128969901,0.6517275299258516,0.0174637598428938
8.200000000000001,0.9382484354865313,0.6516974377957415,0.017426584238194008
8.25,0.938217413213681,0.6516667378886992,0.017389437275360856
8.3,0.9381869564271245,0.651635440419853,0.01735231633355649
8.35,0.9381570752900824,0.651603555810258,0.017315218824928695
8.4,0.9381277797768478,0.6515710946833184,0.017278142195310594
8.450000000000001,0.9380990796693957,0.6515380678611294,0.017241083924931278
8.5,0.9380709845540678,0.6515044863607424,0.017204041529136887
8.55,0.9380435038183327,0.6514703613903545,0.017167012559121866
8.6,0.938016646647623,0.6514357043454241,0.017129994602669937
8.65,0.9379904220222492,0.6514005268047155,0.017092985284904338
8.700000000000001,0.9379648387143947,0.6513648405262726,0.017055982269046855
8.75,0.9379399052851882,0.6513286574433264,0.017018983257185188
8.8,0.9379156300818591,0.6512919896601341,0.01698198599104804
8.85,0.9378920212349732,0.6512548494477579,0.016944988252787434
8.9,0.9378690866557516,0.651217249239779,0.016907987865767617
8.950000000000001,0.9378468340334728,0.6511792016279538,0.016870982695359974
9,0.9378252708329591,0.6511407193578126,0.01683397064974328
9.05,0.9378044042921475,0.6511018153242023,0.01679694968070865
9.1,0.9377842414197463,0.6510625025667767,0.016759917784468403
9.15,0.9377647889929777,0.6510227942654356,0.016722873002468226
9.200000000000001,0.937746053555407,0.6509827037357161,0.016685813422201882
9.25,0.9377280414148585,0.6509422444241353,0.016648737178027558
9.3,0.9377107586414202,0.6509014299034919,0.01661164245198526
9.35,0.9376942110655344,0.6508602738681234,0.016574527474614287
9.4,0.937678404276179,0.6508187901291248,0.016537390525770048
9.450000000000001,0.9376633436191354,0.6507769926095295,0.016500229935439314
9.5,0.9376490341953466,0.6507348953394554,0.016463044084553093
9.55,0.9376354808593637,0.650692512451218,0.016425831405796183
9.600000000000001,0.9376226882178818,0.6506498581744123,0.01638859038441256
9.65,0.9376106606283658,0.6506069468309679,0.016351319559005636
9.700000000000001,0.9375994021977652,0.6505637928301756,0.016314017522332545
9.75,0.9375889167813181,0.6505204106636927,0.0162766829220914
9.8,0.9375792079814458,0.6504768149005249,0.016239314461700675
9.850000000000001,0.9375702791467354,0.6504330201819899,0.016201910901069736
9.9,0.9375621333710135,0.6503890412166629,0.016164471057359485
9.950000000000001,0.9375547734925073,0.6503448927753076,0.01612699380573226
10,0.9375482020930964,0.6503005896857953,0.01608947808008995
10.05,0.9375424214976529,0.65025614682801125,0.016051922873799272
10.100000000000001,0.9375374337734691,0.6502115791287543,0.016014327240403428
10.15,0.9375332407297753,0.6501669015566293,0.01597669029431896
10.200000000000001,0.9375298439173445,0.6501221291169359,0.0159390112115169
10.25,0.9375272446281849,0.6500772768465546,0.015901289230187257
10.3,0.9375254438953198,0.650032359808833,0.01586352365138581
10.350000000000001,0.9375244424926548,0.6499873930884735,0.015825713839662307
10.4,0.9375242409349299,0.6499423917864251,0.01578785922366895
10.450000000000001,0.93752483947776,0.6498973710147814,0.0157499592967484
10.5,0.937526238117758,0.6498523458916864,0.015712013617500232
10.55,0.9375284365927448,0.6498073315362489,0.015674021810324856
10.600000000000001,0.93753143438204245,0.6497623430634702,0.015635983565944093
10.65,0.9375352307068515,0.6497173955791838,0.015597898641897381
10.700000000000001,0.9375398245307115,0.6496725041750114,0.015559766863012768
10.75,0.9375452145600431,0.6496276839233351,0.015521588121851742
10.8,0.9375513992447726,0.6495829498722896,0.015483362379127067
10.850000000000001,0.9375583767790371,0.6495383170407731,0.015445089664092746
10.9,0.9375661451019707,0.6494938004134829,0.015406770074905245
10.950000000000001,0.9375747018985686,0.6494494149359727,0.015368403778955212
11,0.9375840446006319,0.6494051755097364,0.015329991013168837
11.05,0.9375941703877891,0.6493610969873191,0.015291532084278076
11.100000000000001,0.937605076188595,0.6493171941674567,0.015253027369059037
11.15,0.9376167586817065,0.6492734817902451,0.0152144773145377
11.200000000000001,0.9376292142971334,0.6492299745323424,0.015175882438162376
11.25,0.9376424392175642,0.6491866870022025,0.01513724332794211
11.3,0.9376564293797657,0.649143633735345,0.015098560642550466
11.350000000000001,0.937671180476055,0.6491008291896596,0.01505983511139401
11.4,0.9376866879558446,0.6490582877407488,0.015021067534644904
11.450000000000001,0.9377029470272579,0.649016023677309,0.014982258783237064
11.5,0.9377199526588151,0.6489740511965512,0.014943409798825347
11.55,0.9377376995811889,0.6489323843996626,0.014904521593707186
11.600000000000001,0.9377561822890277,0.6488910372873122,0.014865595250706319
11.65,0.9377753950428472,0.6488500237551976,0.014826631923018092
11.700000000000001,0.9377953318709884,0.6488093575896385,0.014787632834015924
11.75,0.9378159865716401,0.6487690524632151,0.014748599277018624
11.8,0.9378373527149282,0.6487291219304534,0.014709532615018147
11.850000000000001,0.937859423645066,0.6486895794235593,0.014670434280367557
11.9,0.93788219248257,0.648650438248201,0.014631305774428885
11.950000000000001,0.9379056521265351,0.6486117115793415,0.014592148667180631
12,0.9379297952569722,0.6485734124571226,0.014552964596784835
12.05,0.9379546143372041,0.6485355537828005,0.014513755269113396
12.100000000000001,0.9379801016163223,0.6484981483147342,0.014474522457233649
12.15,0.9380062491316997,0.648461208664428,0.014435268000853091
12.200000000000001,0.9380330487115612,0.6484247472926289,0.01439599380572314
12.25,0.9380604919776101,0.6483887765054782,0.014356701843002076
12.3,0.9380885703477091,0.6483533084507214,0.014317394148577032
12.350000000000001,0.9381172750386159,0.6483183551139727,0.014278072822345247
12.4,0.9381465970687708,0.6482839283150402,0.014238740027454608
12.450000000000001,0.938176527261138,0.6482500397043066,0.014199397989503676
12.5,0.9382070562460955,0.648216700759172,0.014160048995701394
12.55,0.9382381744643774,0.6481839227805545,0.014120695393986653
12.600000000000001,0.9382698721700644,0.6481517168894528,0.014081339592108071
12.65,0.9383021394336223,0.6481200940235696,0.014041984056664241
12.700000000000001,0.9383349661449872,0.6480890649339963,0.01400263131210478
12.75,0.9383683420166993,0.6480586401819614,0.013963283939692619
12.8,0.938402256587078,0.6480288301356409,0.013923944576427922
12.850000000000001,0.9384366992234457,0.6479996449670333,0.013884615913934091
12.9,0.9384716591253921,0.64797109464889735,0.013845300697306408
12.950000000000001,0.9385071253280814,0.6479431889517563,0.013806001723923754
13,0.9385430867056025,0.6479159374409658,0.013766721842224085
13.05,0.9385795319743575,0.6478893494738481,0.013727463950444241
13.100000000000001,0.9386164496964923,0.6478634341968931,0.013688230995324652
13.15,0.9386538282833639,0.6478382005430242,0.013649025970779756
13.200000000000001,0.9386916559990467,0.647813657228933,0.013609851916534745
13.25,0.9387299209638755,0.6477898127524807,0.013570711916729431
13.3,0.9387686111580241,0.6477666753901671,0.01353160909849001
13.350000000000001,0.9388077144251195,0.6477442531946677,0.01349254663046951
13.4,0.9388472184758898,0.6477225539924409,0.013453527721357836
13.450000000000001,0.938887110891846,0.6477015853814021,0.01341455561836221
13.5,0.9389273791289956,0.6476813547286685,0.013375633605658964
13.55,0.9389680105215881,0.6476618691683731,0.013336765002817623
13.600000000000001,0.9390089922858911,0.6476431355995483,0.013297953163198229
13.65,0.9390503115239952,0.6476251606840813,0.013259201472322903
13.700000000000001,0.93909195522765,0.6476079508447372,0.013220513346222679
13.75,0.9391339102821256,0.6475915122632561,0.01318189222976065
13.8,0.9391761634701022,0.6475758508785188,0.013143341594932464
13.850000000000001,0.9392187014755871,0.6475609723847858,0.013104864939145365
13.9,0.9392615108878544,0.6475468822300069,0.013066465783476774
13.950000000000001,0.9393045782054121,0.6475335856142018,0.013028147670913643
14,0.9393478898399911,0.6475210874879149,0.012989914164573691
14.05,0.9393914321205568,0.6475093925507405,0.012951768845909753
14.100000000000001,0.9394351912973441,0.6474985052499216,0.012913715312898394
14.15,0.9394791535459119,0.6474884297790205,0.012875757178214018
14.200000000000001,0.9395233049712192,0.647479170076663,0.012837898067389747
14.25,0.9395676316117186,0.6474707298253554,0.012800141616966266
14.3,0.9396121194434707,0.6474631124503742,0.01276249147262992
14.350000000000001,0.939656754384274,0.6474563211187302,0.012724951287341352
14.4,0.9397015222978129,0.6474503587382042,0.01268752471945594
14.450000000000001,0.9397464089978214,0.6474452279564589,0.012650215430837369
14.5,0.9397914002522607,0.6474409311602222,0.012613027084965608
14.55,0.9398364817875131,0.6474374704745456,0.012575963345040636
14.600000000000001,0.939881639292587,0.647434847762136,0.012539027872083228
