time,e,omega,d
0,0.942,0.6482848842903546,0.02633076200788132
0.05,0.9420218903755936,0.6483542583089699,0.026245076676197996
0.1,0.9420426316525852,0.648424428324447,0.02616005511407509
0.15000000000000002,0.9420622094959481,0.6484953536786059,0.02607569694661623
0.2,0.9420806119165824,0.6485669983793318,0.025992001649370544
0.25,0.9420978235913604,0.6486393139637078,0.025908968296422547
0.30000000000000004,0.9421138328937141,0.6487122599633856,0.02582659580808909
0.35000000000000003,0.9421286283050119,0.6487857937805658,0.02574488285651855
0.4,0.9421421990402015,0.6488598723994473,0.02566382787964167
0.45,0.942154535051129,0.6489344524057284,0.02558342908493724
0.5,0.9421656270356967,0.6490094900142988,0.025503684452006105
0.55,0.942175466445602,0.6490849410947548,0.025424591735553035
0.6000000000000001,0.9421840454937301,0.6491607611973779,0.025346148468554725
0.65,0.9421913571611137,0.6492369055793845,0.025268351965622233
0.7000000000000001,0.9421973952034499,0.6493133292314349,0.02519119932654909
0.75,0.9422021541571691,0.6493899869043861,0.02511468744003641
0.8,0.9422056293450457,0.6494668331362752,0.025038812987586104
0.8500000000000001,0.9422078168813424,0.6495438222795165,0.02496357244755312
0.9,0.9422087136764832,0.6496209085282997,0.024888962099347264
0.9500000000000001,0.942208317441245,0.6496980459461715,0.024814978027775252
1,0.9422066266904611,0.6497751884937865,0.024741616127513244
1.05,0.9422036407462325,0.6498522900568098,0.02466887210770012
1.1,0.9421993597406364,0.6499293044739594,0.024596741496641643
1.1500000000000001,0.9421937846179289,0.6500061855651665,0.024525219646615515
1.2000000000000002,0.9421869171362347,0.6500828871598424,0.02445430173876735
1.25,0.9421787598687184,0.6501593631252311,0.024383982788087483
1.3,0.9421693162042319,0.6502355673948359,0.024314257648458577
1.35,0.9421585903474352,0.6503114539968979,0.024245121017764028
1.4000000000000001,0.9421465873183813,0.6503869770829135,0.024176567443047078
1.4500000000000002,0.9421333129515671,0.6504620909561719,0.024108591325710794
1.5,0.9421187738944421,0.6505367501002955,0.024041186926749003
1.55,0.9421029776053735,0.6506109092077673,0.023974348371998473
1.6,0.9420859323510652,0.6506845232084257,0.02390806965740272
1.6500000000000001,0.9420676472034262,0.6507575472979115,0.023842344654278015
1.7000000000000002,0.942048132035889,0.6508299369660484,0.023777167114572267
1.75,0.9420273975191743,0.6509016480251404,0.023712530676107776
1.8,0.9420054551165025,0.6509726366381666,0.02364842886779897
1.85,0.9419823170782494,0.6510428593468588,0.02358485511483652
1.9000000000000001,0.9419579964360482,0.6511122730996414,0.023521802743829468
1.9500000000000002,0.9419325069963358,0.6511808352794183,0.023459264987897372
2,0.9419058633333461,0.6512485037311874,0.023397234991704638
2.0500000000000003,0.9418780807815501,0.6513152367894657,0.023335705816429606
2.1,0.9418491754275444,0.6513809933055077,0.02327467044466133
2.15,0.9418191641013927,0.6514457326742995,0.02321412178521719
2.2,0.941788064367419,0.65150941486131,0.02315405267787508
2.25,0.9417558945144601,0.6515720004289814,0.023094455898014035
2.3000000000000003,0.9417226735455768,0.6516334505629446,0.023035324161157743
2.35,0.9416884211672317,0.651693727097936,0.022976650127415735
2.4000000000000004,0.9416531577779367,0.6517527925434046,0.022918426405817406
2.45,0.9416169044563738,0.6518106101087858,0.022860645558534533
2.5,0.9415796829489993,0.6518671437284297,0.022803300104988395
2.5500000000000003,0.9415415156571327,0.6519223580861616,0.02274638252583785
2.6,0.9415024256235411,0.6519762186394604,0.02268988526684556
2.6500000000000004,0.9414624365185239,0.652028691643236,0.022633800742619507
2.7,0.9414215726255061,0.6520797441731879,0.02257812134022789
2.75,0.94137985882615,0.6521293441487294,0.02252283942268562
2.8000000000000003,0.9413373205490828,0.6521774603005787,0.022467947333495684
2.85,0.9412939838716877,0.6522240623668701,0.022413437395663836
2.9000000000000004,0.9412498753718687,0.6522691209257938,0.022359301919905383
2.95,0.9412050221620489,0.6523126074857694,0.022305533205427275
3,0.9411594518755091,0.6523544945121422,0.022252123542729388
3.0500000000000003,0.9411131926448536,0.6523947554414642,0.02219906521644106
3.1,0.9410662730839927,0.6524333647007889,0.022146350507904346
3.1500000000000004,0.9410187222697476,0.6524702977264853,0.02209397169762909
3.2,0.940970569723076,0.652505530982458,0.02204192106762385
3.25,0.9409218453899244,0.6525390419777556,0.02199019090360694
3.3000000000000003,0.9408725796217215,0.652570809283554,0.02193877349710045
3.35,0.9408228031555285,0.6526008125494986,0.021887661147410857
3.4000000000000004,0.9407725470938579,0.6526290325193854,0.021836846163500158
3.45,0.9407218428841803,0.6526554510461688,0.02178632086575195
3.5,0.9406707222981286,0.6526800511062776,0.021736077587637008
3.5500000000000003,0.9406192174104223,0.6527028168132238,0.021686108677283426
3.6,0.9405673605775213,0.6527237334304884,0.02163640649895665
3.6500000000000004,0.9405151844160308,0.6527427873836688,0.02158696343445497
3.7,0.9404627217808716,0.6527599662718739,0.02153777188442638
3.75,0.9404100057432346,0.6527752588783506,0.02148882426961299
3.8000000000000003,0.9403570695683348,0.6527886551803284,0.02144011303202923
3.85,0.9403039466929851,0.6528001463580678,0.02139163063608061
3.9000000000000004,0.9402506707030076,0.652809724803101,0.021343369569629636
3.95,0.9401972753104986,0.6528173841256485,0.02129532234501594
4,0.9401437943309692,0.6528231191612034,0.021247481500037642
4.05,0.940090261660378,0.6528269259762683,0.021199839598901107
4.1000000000000005,0.9400367112520767,0.6528288018732372,0.021152389233146492
4.15,0.939983177093685,0.6528287453944085,0.02110512302255629
4.2,0.939929693183919,0.6528267563251224,0.0210580336160543
4.25,0.9398762935093877,0.6528228356960134,0.021011113692602536
4.3,0.9398230120213803,0.6528169857843682,0.020964355962103255
4.3500000000000005,0.9397698826126629,0.6528092101145843,0.02091775316631363
4.4,0.9397169390943049,0.6527995134577212,0.02087129807978027
4.45,0.9396642151725539,0.6527879018301403,0.02082498351080078
4.5,0.9396117444257812,0.6527743824912283,0.020778802302419446
4.55,0.9395595602815142,0.6527589639402009,0.02073274733346402
4.6000000000000005,0.9395076959935785,0.6527416559119857,0.020686811519630262
4.65,0.9394561846193679,0.6527224693721813,0.02064098781462093
4.7,0.9394050589972621,0.6527014165110936,0.0205952692113455
4.75,0.9393543517242116,0.6526785107368505,0.02054964874318678
4.800000000000001,0.9393040951335079,0.6526537666675966,0.0205041194853402
4.8500000000000005,0.9392543212727603,0.652627200122771,0.020458674556231408
4.9,0.9392050618820957,0.652598828113474,0.02041330711901741
4.95,0.9391563483726012,0.6525686688319264,0.020368010383176156
5,0.9391082118050267,0.6525367416400296,0.020322777606189207
5.050000000000001,0.9390606828687675,0.6525030670570341,0.020277602095321614
5.1000000000000005,0.9390137918611413,0.6524676667463253,0.020232477209502917
5.15,0.93896756866698,0.6524305635013374,0.020187396361312636
5.2,0.9389220427385497,0.6523917812306066,0.020142353019073307
5.25,0.9388772430758194,0.6523513449419756,0.020097340709053592
5.300000000000001,0.9388331981932374,0.6523092807553699,0.020052353019565667
5.3500000000000005,0.9387899361344153,0.6522656158109515,0.020007383599103996
5.4,0.9387474844340541,0.6522203782960995,0.019962426161331003
5.45,0.9387058700931714,0.6521735974413456,0.019917474488587703
5.5,0.9386651196021981,0.6521253034230265,0.019872522429367993
5.550000000000001,0.9386252588141278,0.6520755275460415,0.01982756391539072
5.6000000000000005,0.9385863130459025,0.6520243019954616,0.01978259294942586
5.65,0.9385483070189895,0.651971659901272,0.019737603613863477
5.7,0.9385112648394157,0.6519176353219086,0.019692590074471668
5.75,0.9384752099858378,0.6518622632140978,0.01964754658330247
5.800000000000001,0.9384401652946182,0.6518055794088075,0.019602467482129616
5.8500000000000005,0.9384061529453411,0.6517476205866242,0.019557347206004796
5.9,0.9383731944468412,0.6516884242525428,0.019512180286914326
5.95,0.9383413106237543,0.6516280287101832,0.019466961357531908
6,0.9383105216035971,0.6515664730354623,0.019421685155063307
6.050000000000001,0.938280846804381,0.6515037970497461,0.019376346525177925
6.1000000000000005,0.9382523049227685,0.6514400412925087,0.01933094042602175
6.15,0.9382249139227775,0.6513752469935242,0.01928546193230574
6.2,0.9381986910250388,0.6513094560446199,0.01923990623946328
6.25,0.9381736526969321,0.651242710971956,0.01919426866773343
6.300000000000001,0.9381498146420215,0.6511750549043304,0.019148544666827774
6.3500000000000005,0.9381271917917622,0.6511065315457966,0.019102729819943716
6.4,0.9381057982971257,0.6510371851463164,0.019056819848077812
6.45,0.9380856475203363,0.6509670604707913,0.019010810614558598
6.5,0.938066752027602,0.650896202768937,0.018964698129432994
6.550000000000001,0.9380491235823499,0.6508246577447488,0.01891847855389412
6.6000000000000005,0.9380327731390259,0.6507524715257165,0.018872148204718102
6.65,0.9380177108374659,0.6506796906318392,0.018825703558697032
6.7,0.9380039459978412,0.6506063619444751,0.01877914125705848
6.75,0.9379914871161725,0.6505325326750474,0.018732458109861662
6.800000000000001,0.9379803418604142,0.6504582503336352,0.01868565110036046
6.8500000000000005,0.9379705170671057,0.650383562697474,0.018638717389323302
6.9,0.9379620187385854,0.6503085177793918,0.01859165431929962
6.95,0.9379548520407661,0.6502331637962057,0.01854445941882276
7,0.9379490213014673,0.6501575491371027,0.018497130406539
7.050000000000001,0.9379445300092998,0.6500817223320313,0.018449665195252287
7.1000000000000005,0.9379413808130984,0.6500057320201248,0.01840206189587436
7.15,0.937939575521897,0.6499296269181806,0.018354318821269953
7.2,0.9379391151054424,0.6498534557892187,0.018306434489986714
7.25,0.9379399996952388,0.6497772674111421,0.01825840762985964
7.300000000000001,0.9379422285861189,0.6497011105455167,0.01821023718147992
7.3500000000000005,0.9379458002383331,0.649625033906498,0.018161922301518082
7.4,0.937950712280153,0.6495490861299199,0.01811346236589176
7.45,0.9379569615109788,0.6494733157425674,0.01806485697276816
7.5,0.9379645439049454,0.6493977711316536,0.018016105945391943
7.550000000000001,0.9379734546150202,0.649322500514517,0.01796720933472918
7.6000000000000005,0.9379836879775834,0.64924755190856,0.017918167421918315
7.65,0.9379952375174823,0.6491729731014444,0.01786898072051955
7.7,0.9380080959535553,0.6490988116215617,0.017819649978553995
7.75,0.9380222552046121,0.6490251147087939,0.01777017618032468
7.800000000000001,0.938037706395866,0.6489519292855807,0.017720560548011473
7.8500000000000005,0.938054439865807,0.6488793019283103,0.017670804543032544
7.9,0.938072445173509,0.6488072788390445,0.017620909867165354
7.95,0.93809171110636,0.6487359058175957,0.017570878463420442
8,0.9381122256882105,0.6486652282339676,0.017520712516661804
8.05,0.9381339761879259,0.6485952910011742,0.017470414453968106
8.1,0.938156949128338,0.6485261385484468,0.017419986944729304
8.15,0.9381811302955854,0.6484578147948439,0.01736943290047377
8.200000000000001,0.9382065047488333,0.6483903631232736,0.017318755474421545
8.25,0.9382330568303647,0.6483238263549401,0.017267958060759776
8.3,0.9382607701760329,0.6482582467242256,0.017217044293636848
8.35,0.9382896277260668,0.6481936658540147,0.017166018045872315
8.4,0.9383196117362205,0.6481301247314754,0.017114883427380236
8.450000000000001,0.9383507037892576,0.6480676636843009,0.017063644783303956
8.5,0.9383828848067616,0.6480063223574255,0.01701230669186104
8.55,0.9384161350612639,0.6479461396902189,0.016960873961897504
8.6,0.9384504341886795,0.6478871538941688,0.01690935163015107
8.65,0.9384857612010431,0.6478294024310605,0.01685774495822365
8.700000000000001,0.9385220944995364,0.6477729219916567,0.01680605942926398
8.75,0.9385594118877977,0.6477177484748887,0.016754300744361624
8.8,0.9385976905855057,0.6476639169675626,0.016702474818654302
8.85,0.9386369072422293,0.6476114617245871,0.01665058777715101
8.9,0.938677037951535,0.6475604161497295,0.016598645950273827
8.950000000000001,0.9387180582653433,0.6475108127769046,0.016546655869121973
9,0.9387599432085265,0.6474626832520021,0.01649462426046217
9.05,0.9388026672937401,0.6474160583152565,0.01644255804144981
9.1,0.9388462045364787,0.6473709677841667,0.0163904643140861
9.15,0.9388905284703513,0.6473274405369653,0.016338350359416696
9.200000000000001,0.9389356121625646,0.647285504496647,0.016286223631477935
9.25,0.9389814282296102,0.6472451866155557,0.016234091750997295
9.3,0.9390279488531454,0.6472065128605363,0.016181962498855063
9.35,0.9390751457960638,0.6471695081986539,0.01612984380931474
9.4,0.9391229904187427,0.6471341965834851,0.016077743763030262
9.450000000000001,0.9391714536954675,0.6471006009419817,0.016025670579838242
9.5,0.9392205062310196,0.647068743161913,0.015973632611344234
9.55,0.939270118277424,0.6470386440798873,0.015921638333312192
9.600000000000001,0.9393202597508492,0.6470103234699567,0.015869696337866737
9.65,0.9393709002486527,0.6469838000328055,0.015817815325518222
9.700000000000001,0.9394220090665638,0.6469590913855281,0.015766004097020923
9.75,0.939473555216,0.6469362140519951,0.015714271545075143
9.8,0.939525507441507,0.6469151834538115,0.015662626645884022
9.850000000000001,0.9395778342383181,0.6468960139018695,0.015611078450576589
9.9,0.9396305038700257,0.6468787185884954,0.01555963607650838
9.950000000000001,0.9396834843863583,0.6468633095801956,0.01550830869845159
10,0.9397367436410565,0.6468497978109998,0.015457105539686778
10.05,0.9397902493098418,0.6468381930764068,0.015406035863008294
10.100000000000001,0.939843968908472,0.6468285040279302,0.01535510896165596
10.15,0.9398978698108764,0.6468207381682487,0.015304334150185577
10.200000000000001,0.9399519192673643,0.6468149018469607,0.015253720755290976
10.25,0.9400060844229016,0.6468110002569443,0.015203278106590445
10.3,0.9400603323354468,0.6468090374313236,0.01515301552739058
10.350000000000001,0.9401146299943437,0.646809016241044,0.015102942325440433
10.4,0.9401689443387595,0.6468109383930543,0.015053067783689129
10.450000000000001,0.9402232422761668,0.6468148044290987,0.01500340115105996
10.5,0.9402774907008594,0.6468206137251189,0.014953951633254038
10.55,0.9403316565124973,0.6468283644912656,0.014904728383596565
10.600000000000001,0.9403857066346737,0.6468380537725218,0.014855740493938688
10.65,0.9404396080334971,0.6468496774499367,0.014806996985627844
10.700000000000001,0.9404933277361831,0.6468632302424702,0.014758506800559415
10.75,0.9405468328496465,0.6468787057094497,0.014710278792322357
10.8,0.9406000905790902,0.6468960962536375,0.014662321717451295
10.850000000000001,0.9406530682465815,0.6469153931249098,0.014614644226797537
10.9,0.9407057333096093,0.6469365864245451,0.014567254857031028
10.950000000000001,0.9407580533796157,0.6469596651101251,0.014520162022285288
11,0.9408099962404951,0.6469846170010435,0.014473374005956954
11.05,0.9408615298670512,0.6470114287846236,0.014426898952671385
11.100000000000001,0.9409126224434067,0.6470400860228456,0.014380744860425466
11.15,0.9409632423813584,0.6470705731596783,0.014334919572918416
11.200000000000001,0.9410133583386675,0.647102873529019,0.014289430772081125
11.25,0.9410629392372797,0.6471369693632344,0.014244285970814199
11.3,0.9411119542814655,0.6471728418023073,0.01419949250594437
11.350000000000001,0.9411603729758748,0.6472104709035802,0.014155057531408872
11.4,0.9412081651434945,0.6472498356521009,0.014110988011676567
11.450000000000001,0.9412553009435032,0.647290913971561,0.014067290715414531
11.5,0.9413017508890134,0.64733368273583,0.014023972209408186
11.55,0.9413474858646931,0.6473781177810789,0.013981038852742591
11.600000000000001,0.9413924771442572,0.6474241939184918,0.013938496791252223
11.65,0.9414366964078215,0.6474718849475618,0.013896351952245848
11.700000000000001,0.9414801157591068,0.6475211636699675,0.01385461003951279
11.75,0.9415227077424889,0.6475720019040256,0.013813276528616265
11.8,0.9415644453598803,0.647624370499717,0.013772356662479002
11.850000000000001,0.9416053020874371,0.6476782393542801,0.013731855447265824
11.9,0.9416452518920807,0.647733577428368,0.01369177764856731
11.950000000000001,0.9416842692478243,0.6477903527627631,0.013652127787888093
12,0.9417223291518946,0.6478485324956442,0.013612910139442899
12.05,0.9417594071406389,0.6479080828804015,0.01357412872726274
12.100000000000001,0.941795479305207,0.6479689693039902,0.013535787322613155
12.15,0.9418305223069988,0.64803115630582,0.013497889441725969
12.200000000000001,0.9418645133928659,0.6480946075971714,0.01346043834384512
12.25,0.9418974304100576,0.6481592860811309,0.01342343702958705
12.3,0.9419292518209017,0.64822515387304,0.013386888239615025
12.350000000000001,0.9419599567172077,0.6482921723214473,0.013350794453626651
12.4,0.9419895248343837,0.6483603020295574,0.013315157889653002
12.450000000000001,0.9420179365652548,0.6484295028771664,0.013279980503667325
12.5,0.942045172973574,0.6484997340430755,0.013245263989500728
12.55,0.9420712158072133,0.6485709540279743,0.013211009779061705
12.600000000000001,0.9420960475110258,0.6486431206777803,0.013177219042855766
12.65,0.942119651239366,0.6487161912074286,0.013143892690800973
12.700000000000001,0.942142010868261,0.6487901222250985,0.013111031373334647
12.75,0.9421631110072177,0.6488648697568656,0.013078635482805977
12.8,0.9421829370106597,0.6489403892717709,0.013046705155148724
12.850000000000001,0.9422014749889789,0.6490166357072901,0.013015240271827905
12.9,0.9422187118191958,0.6490935634951959,0.012984240462053584
12.950000000000001,0.9422346351552141,0.6491711265877976,0.012953705105254803
13,0.9422492334376619,0.6492492784845454,0.01292363333380585
13.05,0.9422624959033077,0.6493279722589869,0.012894024035997041
13.100000000000001,0.9422744125940423,0.6494071605860616,0.012864875859241471
13.15,0.942284974365416,0.6494867957697191,0.012836187213508985
13.200000000000001,0.9422941728947205,0.6495668297708469,0.012807956274978249
13.25,0.9423020006886076,0.6496472142354933,0.01278018098989738
13.3,0.9423084510902338,0.6497279005233697,0.012752859078643397
13.350000000000001,0.9423135182859225,0.6498088397366174,0.01272598803997036
13.4,0.9423171973113338,0.6498899827488237,0.012699565155435848
13.450000000000001,0.942319484057134,0.6499712802342703,0.012673587493995197
13.5,0.9423203752741552,0.6500526826973994,0.012648051916752712
13.55,0.9423198685780391,0.6501341405024785,0.01262295508185876
13.600000000000001,0.9423179624533528,0.6502156039034513,0.012598293449541697
13.65,0.9423146562571739,0.6502970230739538,0.012574063287263283
13.700000000000001,0.9423099502221333,0.6503783481374805,0.012550260674986113
13.75,0.942303845458911,0.6504595291976839,0.012526881510541711
13.8,0.942296343958178,0.6505405163687888,0.012503921515087613
13.850000000000001,0.9422874485919764,0.6506212598061049,0.012481376238641949
13.9,0.9422771631145348,0.6507017097366175,0.012459241065683952
13.950000000000001,0.9422654921625087,0.6507818164896435,0.012437511220808805
14,0.942252441254646,0.6508615305275289,0.012416181774425442
14.05,0.9422380167908695,0.6509408024763732,0.012395247648485784
14.100000000000001,0.9422222260507719,0.6510195831567631,0.0123747036222343
14.15,0.9422050771915215,0.6510978236144945,0.01235454433796656
14.200000000000001,0.942186579245174,0.6511754751512672,0.012334764306785989
14.25,0.9421667421153865,0.6512524893553321,0.012315357914347938
14.3,0.9421455765735326,0.6513288181320742,0.012296319426580559
14.350000000000001,0.9421230942542155,0.6514044137345119,0.012277642995372118
14.4,0.9420993076501791,0.6514792287936934,0.012259322664214829
14.450000000000001,0.9420742301066136,0.6515532163489752,0.012241352373795313
14.5,0.942047875814857,0.6516263298781602,0.012223725967522346
14.55,0.9420202598054915,0.6516985233274782,0.012206437196982785
14.600000000000001,0.9419913979408365,0.6517697511413928,0.01218947972731695
