time,e,omega,d
0,0.942,0.6482532304803152,0.02633076200788132
0.05,0.9420205317446619,0.6482808773899723,0.026245454693943803
0.1,0.9420406427730865,0.6483089522445717,0.02616060645833115
0.15000000000000002,0.942060325364359,0.648337448024217,0.026076217315415182
0.2,0.9420795728578675,0.6483663584684215,0.025992287240806194
0.25,0.9420983764870848,0.64839567509177,0.025908816159205043
0.30000000000000004,0.9421167292174008,0.6484253907268567,0.025825803948035343
0.35000000000000003,0.9421346238161626,0.6484554977757121,0.025743250439738522
0.4,0.9421520531804883,0.6484859885008505,0.02566115542014015
0.45,0.9421690103385312,0.6485168550272802,0.025579518628440667
0.5,0.9421854884522103,0.6485480893447841,0.025498339756871304
0.55,0.9422014808196306,0.6485796833100458,0.025417618450439272
0.6000000000000001,0.9422169808687514,0.6486116286569334,0.02533735430967261
0.65,0.9422319821876378,0.648643916972322,0.02525754688085773
0.7000000000000001,0.9422464784963894,0.6486765397278054,0.025178195666347068
0.75,0.942260463660676,0.6487094882707602,0.02509930012049951
0.8,0.9422739316950038,0.6487427538258502,0.025020859649217016
0.8500000000000001,0.9422868767640223,0.6487763274982973,0.024942873610162463
0.9,0.9422992931847178,0.6488102002762934,0.024865341312682712
0.9500000000000001,0.9423111754285781,0.6488443630334464,0.02478826201775487
1,0.942322518123719,0.6488788065312608,0.024711634937957784
1.05,0.9423333160569717,0.6489135214216553,0.024635459237468557
1.1,0.9423435641759299,0.648948498249512,0.02455973403208383
1.1500000000000001,0.9423532575909579,0.6489837274552638,0.024484458389265575
1.2000000000000002,0.9423623915771554,0.6490191993775117,0.024409631328211216
1.25,0.9423709615762825,0.649054904255678,0.02433525181994775
1.3,0.9423789631986408,0.6490908322326895,0.02426131878744961
1.35,0.9423863922249106,0.6491269733576941,0.02418783110577996
1.4000000000000001,0.9423932446079454,0.6491633175888091,0.024114787602255116
1.4500000000000002,0.9423995164745201,0.649199854795898,0.024042187056631734
1.5,0.9424052041270342,0.64923657476338,0.023970028201316454
1.55,0.942410304045168,0.6492734671930671,0.02389830972159757
1.6,0.9424148128874925,0.6493105217070309,0.0238270302558984
1.6500000000000001,0.9424187274930307,0.6493477278504979,0.02375618839605194
1.7000000000000002,0.9424220448827707,0.6493850750947715,0.023685782687596347
1.75,0.9424247622611298,0.6494225528401827,0.0236158116300909
1.8,0.9424268770173677,0.6494601504190656,0.023546273677451934
1.85,0.9424283867269503,0.6494978570987596,0.023477167238308318
1.9000000000000001,0.942429289152861,0.6495356620846369,0.023408490676376015
1.9500000000000002,0.9424295822468614,0.649573554523154,0.02334024231085123
2,0.9424292641506976,0.6496115235049283,0.023272420416821666
2.0500000000000003,0.9424283331972552,0.6496495580678366,0.023205023225695388
2.1,0.9424267879116585,0.6496876472001374,0.02313804892564679
2.15,0.9424246270123164,0.6497257798436151,0.023071495662079097
2.2,0.9424218494119129,0.6497639448967452,0.023005361538102977
2.25,0.9424184542183415,0.6498021312178807,0.0229396446150306
2.3000000000000003,0.942414440735583,0.649840327628459,0.022874342912884676
2.35,0.9424098084645274,0.6498785229162276,0.022809454410921907
2.4000000000000004,0.942404557103737,0.6499167058384894,0.02274497704817029
2.45,0.9423986865501521,0.6499548651253649,0.02268090872397968
2.5,0.9423921968997383,0.6499929894830753,0.022617247298585098
2.5500000000000003,0.9423850884480733,0.6500310675972374,0.022553990593682134
2.6,0.9423773616908757,0.65006908813618,0.022491136393013957
2.6500000000000004,0.9423690173244724,0.650107039754273,0.022428682442969264
2.7,0.9423600562462057,0.6501449110952712,0.022366626453190642
2.75,0.9423504795547788,0.6501826907956751,0.022304966097192735
2.8000000000000003,0.9423402885505401,0.6502203674881021,0.022243699012989615
2.85,0.9423294847357052,0.650257929804673,0.022182822803730802
2.9000000000000004,0.9423180698145159,0.6502953663804105,0.02212233503834533
2.95,0.9423060456933371,0.6503326658566481,0.022062233252193267
3,0.9422934144806887,0.6503698168844514,0.022002514947724098
3.0500000000000003,0.9422801784872156,0.6504068081280491,0.021943177595141427
3.1,0.9422663402255916,0.6504436282682734,0.021884218633073355
3.1500000000000004,0.9422519024103608,0.6504802660060103,0.021825635469248025
3.2,0.9422368679577117,0.6505167100656568,0.021767425481173736
3.25,0.942221239985188,0.6505529491985864,0.021709586016823032
3.3000000000000003,0.9422050218113328,0.650588972186622,0.02165211439532024
3.35,0.9421882169552676,0.6506247678455132,0.02159500790763189
3.4000000000000004,0.9421708291362042,0.6506603250284209,0.021538263817259498
3.45,0.9421528622728913,0.6506956326294056,0.021481879360934104
3.5,0.942134320482994,0.6507306795869197,0.021425851749312115
3.5500000000000003,0.9421152080824057,0.6507654548873031,0.02137017816767185
3.6,0.9420955295844948,0.6507999475682813,0.021314855776610363
3.6500000000000004,0.9420752896992821,0.6508341467224653,0.02125988171273997
3.7,0.9420544933325523,0.6508680415008522,0.021205253089383987
3.75,0.9420331455848967,0.6509016211163261,0.021150966997271276
3.8000000000000003,0.9420112517506903,0.6509348748471587,0.021097020505229002
3.85,0.9419888173169984,0.6509677920405077,0.02104341066087331
3.9000000000000004,0.9419658479624173,0.6510003621159135,0.020990134491297278
3.95,0.9419423495558473,0.651032574568793,0.02093718900375593
4,0.9419183281551962,0.6510644189739294,0.020884571186347685
4.05,0.9418937900060161,0.6510958849889565,0.02083227800869198
4.1000000000000005,0.9418687415400729,0.6511269623578393,0.020780306422602684
4.15,0.9418431893738456,0.6511576409143454,0.020728653362756793
4.2,0.9418171403069602,0.6511879105855115,0.020677315747358187
4.25,0.9417906013205551,0.6512177613951012,0.020626290478796078
4.3,0.9417635795755788,0.651247183467052,0.020575574444297744
4.3500000000000005,0.9417360824110196,0.6512761670289137,0.020525164516575375
4.4,0.9417081173420692,0.6513047024152759,0.020475057554466637
4.45,0.9416796920582187,0.6513327800711826,0.020425250403568695
4.5,0.9416508144212872,0.6513603905555333,0.02037573989686549
4.55,0.9416214924633846,0.6513875245444726,0.02032652285534799
4.6000000000000005,0.9415917343848075,0.6514141728347612,0.02027759608862722
4.65,0.9415615485518694,0.6514403263471336,0.020228956395539836
4.7,0.9415309434946647,0.6514659761296373,0.020180600564746107
4.75,0.9414999279047681,0.6514911133609544,0.020132525375320124
4.800000000000001,0.9414685106328682,0.651515729353703,0.02008472759733207
4.8500000000000005,0.9414367006863368,0.6515398155577186,0.0200372039924225
4.9,0.9414045072267343,0.6515633635633138,0.0199899513143684
4.95,0.9413719395672512,0.6515863651045161,0.019942966309641118
5,0.9413390071700867,0.6516088120622793,0.01989624571795589
5.050000000000001,0.9413057196437639,0.6516306964676724,0.019849786272813138
5.1000000000000005,0.9412720867403839,0.6516520105050401,0.019803584702031335
5.15,0.9412381183528181,0.6516727465151367,0.019757637728271535
5.2,0.9412038245118395,0.6516928969982306,0.01971194206955353
5.25,0.9411692153831933,0.6517124546171784,0.019666494439763708
5.300000000000001,0.9411343012646094,0.6517314122004673,0.019621291549154634
5.3500000000000005,0.9410990925827546,0.6517497627452252,0.019576330104836434
5.4,0.9410635998901274,0.6517674994201963,0.019531606811260094
5.45,0.9410278338618964,0.6517846155686798,0.01948711837069275
5.5,0.9409918052926799,0.6518011047114337,0.01944286148368512
5.550000000000001,0.9409555250932726,0.6518169605495379,0.019398832849531214
5.6000000000000005,0.9409190042873163,0.6518321769672187,0.019355029166720533
5.65,0.9408822540079161,0.6518467480346322,0.019311447133382842
5.7,0.9408452854942053,0.6518606680106029,0.019268083447725824
5.75,0.940808110087857,0.6518739313453203,0.01922493480846578
5.800000000000001,0.9407707392295463,0.651886532682988,0.019181997915251596
5.8500000000000005,0.9407331844553609,0.6518984668644262,0.019139269469082294
5.9,0.940695457393165,0.6519097289296247,0.019096746172718348
5.95,0.9406575697589133,0.651920314120246,0.01905442473108711
6,0.940619533352921,0.6519302178820762,0.01901230185168266
6.050000000000001,0.9405813600560866,0.651939435867422,0.018970374244960266
6.1000000000000005,0.9405430618260711,0.651947963937453,0.01892863862472598
6.15,0.9405046506934344,0.6519557981644872,0.01888709170852153
6.2,0.9404661387577312,0.6519629348342176,0.01884573021800497
6.25,0.9404275381835648,0.6519693704478798,0.01880455087932737
6.300000000000001,0.9403888611966033,0.651975101724357,0.018763550423506036
6.3500000000000005,0.9403501200795575,0.6519801256022234,0.018722725586794473
6.4,0.9403113271681235,0.6519844392417211,0.01868207311104971
6.45,0.9402724948468892,0.6519880400266727,0.018641589744097155
6.5,0.9402336355452096,0.6519909255663237,0.018601272240093596
6.550000000000001,0.9401947617330484,0.6519930936971183,0.018561117359888628
6.6000000000000005,0.9401558859167903,0.6519945424844016,0.018521121871385028
6.65,0.9401170206350249,0.6519952702240511,0.018481282549898434
6.7,0.9400781784543021,0.651995275444033,0.018441596178516834
6.75,0.9400393719648642,0.6519945569058837,0.018402059548460258
6.800000000000001,0.9400006137763524,0.6519931136061135,0.01836266945944117
6.8500000000000005,0.939961916513491,0.6519909447775324,0.01832342272002596
6.9,0.9399232928117532,0.6519880498904952,0.018284316147998
6.95,0.9398847553130051,0.6519844286540664,0.018245346570722736
7,0.9398463166611349,0.6519800810170999,0.01820651082551528
7.050000000000001,0.9398079894976664,0.6519750071692371,0.01816780576001086
7.1000000000000005,0.9397697864573575,0.6519692075418176,0.018129228232538715
7.15,0.939731720163789,0.6519626828087041,0.01809077511249977
7.2,0.9396938032249419,0.6519554338870175,0.01805244328074858
7.25,0.9396560482287674,0.6519474619377854,0.018014229629979953
7.300000000000001,0.9396184677387505,0.6519387683664969,0.017976131065120745
7.3500000000000005,0.9395810742894691,0.6519293548235677,0.017938144503727157
7.4,0.9395438803821508,0.651919223204712,0.017900266876388
7.45,0.9395068984802282,0.6519083756512197,0.017862495127134368
7.5,0.939470141004897,0.6518968145501397,0.01782482621385604
7.550000000000001,0.9394336203306766,0.6518845425343665,0.017787257108725054
7.6000000000000005,0.9393973487809751,0.6518715624826308,0.017749784798626805
7.65,0.9393613386236628,0.6518578775193927,0.017712406285599017
7.7,0.939325602066653,0.6518434910146349,0.017675118587278976
7.75,0.9392901512534958,0.6518284065835589,0.017637918737359325
7.800000000000001,0.9392549982589828,0.6518126280861803,0.017600803786052718
7.8500000000000005,0.9392201550847685,0.6517961596268241,0.017563770800565707
7.9,0.9391856336550067,0.6517790055535191,0.01752681686558206
7.95,0.939151445812007,0.6517611704572908,0.01748993908375585
8,0.939117603311912,0.6517426591713531,0.01745313457621449
8.05,0.9390841178203957,0.6517234767701979,0.017416400483072036
8.1,0.9390510009083886,0.651703628568582,0.017379733963952846
8.15,0.9390182640478276,0.6516831201204119,0.01734313219852589
8.200000000000001,0.9389859186074357,0.651661957217526,0.017306592387049808
8.25,0.938953975848531,0.6516401458883745,0.017270111750928904
8.3,0.9389224469208681,0.6516176923965964,0.01723368753328011
8.35,0.9388913428585148,0.6515946032394944,0.017197316999511124
8.4,0.9388606745757636,0.6515708851464075,0.01716099743790974
8.450000000000001,0.9388304528630814,0.6515465450769822,0.01712472616024436
8.5,0.9388006883830995,0.6515215902193408,0.017088500502375818
8.55,0.9387713916666443,0.6514960279881503,0.01705231782488041
8.6,0.9387425731088122,0.6514698660225898,0.017016175513684173
8.65,0.9387142429650893,0.6514431121842176,0.016980070980708247
8.700000000000001,0.938686411347518,0.65141577455474,0.01694400166452538
8.75,0.9386590882209116,0.6513878614336803,0.016907965031027334
8.8,0.938632283399121,0.6513593813359513,0.016871958574103084
8.85,0.9386060065413512,0.6513303429893295,0.016835979816327683
8.9,0.9385802671485334,0.6513007553318342,0.016800026309661525
8.950000000000001,0.9385550745597507,0.6512706275090121,0.016764095636159822
9,0.9385304379487224,0.6512399688711275,0.016728185408692014
9.05,0.9385063663203448,0.6512087889702597,0.01669229327167087
9.1,0.9384828685072933,0.6511770975573096,0.01665641690179088
9.15,0.9384599531666861,0.6511449045789166,0.0166205540087757
9.200000000000001,0.9384376287768089,0.6511122201742857,0.01658470233613421
9.25,0.9384159036339061,0.6510790546719288,0.016548859661924775
9.3,0.9383947858490362,0.6510454185863191,0.016513023799527352
9.35,0.9383742833449943,0.6510113226144632,0.016477192598422924
9.4,0.9383544038533035,0.6509767776323883,0.016441363944979803
9.450000000000001,0.938335154911275,0.6509417946915511,0.01640553576324632
9.5,0.9383165438591392,0.650906385015167,0.01636970601574929
9.55,0.9382985778372487,0.6508705599944609,0.016333872704297765
9.600000000000001,0.9382812637833545,0.6508343311848449,0.01629803387079148
9.65,0.9382646084299547,0.6507977103020209,0.016262187598033325
9.700000000000001,0.938248618301721,0.650760709218013,0.016226332010545262
9.75,0.9382332997129984,0.6507233399571297,0.016190465275387
9.8,0.9382186587653838,0.6506856146918595,0.01615458560297676
9.850000000000001,0.9382047013454561,0.6506475457388378,0.016118691247886844
9.9,0.9381914331222939,0.650609145554228,0.016082780509742614
9.950000000000001,0.9381788595454625,0.6505704267297235,0.01604685173398512
10,0.9381669858429359,0.6505314019882505,0.016010903312682994
10.05,0.9381558170189931,0.6504920841794234,0.01597493368537978
10.100000000000001,0.9381453578522924,0.65045248627511,0.01593894133990562
10.15,0.9381356128940124,0.6504126213649208,0.01590292481319084
10.200000000000001,0.9381265864660744,0.6503725026516447,0.015866882692076197
10.25,0.9381182826594461,0.6503321434466358,0.015830813614118207
10.3,0.9381107053325315,0.6502915571651576,0.015794716268388576
10.350000000000001,0.9381038581096428,0.6502507573216821,0.015758589396266943
10.4,0.9380977443795582,0.6502097575251506,0.01572243179222599
10.450000000000001,0.9380923672941638,0.6501685714741964,0.015686242304608033
10.5,0.9380877297671815,0.6501272129523303,0.015650019836392172
10.55,0.9380838344729807,0.650085695823096,0.015613763345951106
10.600000000000001,0.9380806838454777,0.6500440340251921,0.015577471847796634
10.65,0.9380782800771187,0.6500022415675676,0.015541144413312979
10.700000000000001,0.9380766251179501,0.6499603325244907,0.015504780171476915
10.75,0.9380757206747742,0.6499183210305943,0.015468378309563836
10.8,0.9380755682103903,0.649876221275901,0.015431938073838757
10.850000000000001,0.9380761689429223,0.6498340475008281,0.015395458770231352
10.9,0.9380775238452321,0.6497918139911781,0.015358939764994067
10.950000000000001,0.9380796336444184,0.6497495350731137,0.015322380485342332
11,0.9380824988214004,0.6497072251081213,0.015285780420076028
11.05,0.9380861196105886,0.6496648984879662,0.01524913912018115
11.100000000000001,0.9380904959996389,0.6496225696296399,0.015212456199410834
11.15,0.9380956277292927,0.6495802529703031,0.015175731334844808
11.200000000000001,0.9381015142933005,0.6495379629622253,0.015138964267426303
11.25,0.9381081549384316,0.6494957140677262,0.015102154802475601
11.3,0.938115548664565,0.6494535207541167,0.015065302810179253
11.350000000000001,0.9381236942248664,0.6494113974886456,0.015028408226054142
11.4,0.9381325901260464,0.6493693587334525,0.014991471051385506
11.450000000000001,0.9381422346287016,0.6493274189405284,0.014954491353638046
11.5,0.9381526257477388,0.6492855925466877,0.014917469266839328
11.55,0.9381637612528794,0.6492438939685523,0.014880404991934638
11.600000000000001,0.9381756386692448,0.6492023375975509,0.014843298797112462
11.65,0.9381882552780236,0.6491609377949339,0.014806151018099886
11.700000000000001,0.9382016081172172,0.6491197088868091,0.014768962058427067
11.75,0.9382156939824648,0.649078665159195,0.014731732389660105
11.8,0.9382305094279474,0.6490378208530992,0.014694462551601572
11.850000000000001,0.9382460507673684,0.6489971901596197,0.01465715315245801
11.9,0.9382623140750135,0.6489567872150728,0.014619804868973733
11.950000000000001,0.9382792951868837,0.6489166260961496,0.014582418446530293
12,0.9382969897019074,0.6488767208151006,0.014544994699211005
12.05,0.938315392983225,0.6488370853149534,0.014507534509829936
12.100000000000001,0.9383345001595476,0.6487977334647625,0.014470038829924812
12.15,0.9383543061265908,0.6487586790548944,0.014432508679713305
12.200000000000001,0.93837480554857855,0.6487199357923481,0.014394945148012208
12.25,0.9383959928598206,0.6486815172961153,0.014357349392119042
12.3,0.9384178622663589,0.6486434370925782,0.014319722637655661
12.350000000000001,0.9384404077476854,0.6486057086109487,0.014282066178373444
12.4,0.9384636230585286,0.6485683451787503,0.014244381375919735
12.450000000000001,0.9384875017307064,0.6485313600173435,0.014206669659565139
12.5,0.9385120370750486,0.6484947662374966,0.014168932525891487
12.55,0.9385372221833849,0.6484585768350023,0.014131171538440068
12.600000000000001,0.9385630499305972,0.6484228046863422,0.014093388327320034
12.65,0.9385895129767378,0.6483874625444007,0.014055584588776699
12.700000000000001,0.93861660376921,0.6483525630342284,0.014017762084719632
12.75,0.9386443145450121,0.6483181186488574,0.0139799226422104
12.8,0.9386726373330427,0.6482841417451686,0.013942068152909865
12.850000000000001,0.9387015639564666,0.6482506445398125,0.013904200572485079
12.9,0.9387310860351404,0.6482176391051853,0.013866321919975675
12.950000000000001,0.9387611949880967,0.6481851373654598,0.013828434277119845
13,0.938791882036087,0.6481531510926737,0.013790539787639973
13.05,0.93882313820418,0.6481216919028743,0.01375264065648802
13.100000000000001,0.9388549543244166,0.6480907712523232,0.01371473914905084
13.15,0.9388873210385201,0.6480604004337592,0.013676837590315585
13.200000000000001,0.9389202288006594,0.6480305905727222,0.01363893836399546
13.25,0.9389536678802655,0.6480013526239374,0.013601043911616068
13.3,0.9389876283649005,0.6479726973677618,0.013563156731562657
13.350000000000001,0.9390221001631766,0.6479446354066938,0.013525279378088648
13.4,0.939057073007726,0.6479171771619447,0.013487414460285762
13.450000000000001,0.9390925364582192,0.6478903328700759,0.013449564641016206
13.5,0.9391284799044318,0.6478641125796994,0.013411732635807404
13.55,0.939164892569358,0.6478385261482444,0.013373921211709678
13.600000000000001,0.9392017635123705,0.64781358323879,0.013336133186117517
13.65,0.9392390816324259,0.6477892933169632,0.013298371425554923
13.700000000000001,0.9392768356713131,0.6477656656479057,0.013260638844425443
13.75,0.9393150142169469,0.6477427092933067,0.013222938403727628
13.8,0.9393536057067013,0.6477204331085048,0.01318527310973641
13.850000000000001,0.9393925984307876,0.6476988457396587,0.01314764601265128
13.9,0.9394319805356687,0.6476779556209857,0.013110060205211918
13.950000000000001,0.9394717400275168,0.6476577709720703,0.013072518821282053
14,0.9395118647757069,0.6476382997952438,0.013035025034402414
14.05,0.9395523425163492,0.6476195498730319,0.01299758205631353
14.100000000000001,0.9395931608558579,0.6476015287656752,0.012960193135449332
14.15,0.9396343072745551,0.647584243808719,0.012922861555402405
14.200000000000001,0.9396757691303106,0.6475677021106753,0.012885590633361818
14.25,0.9397175336622142,0.6475519105507556,0.012848383718524564
14.3,0.9397595879942824,0.6475368757766767,0.012811244190481448
14.350000000000001,0.9398019191391962,0.6475226042025378,0.01277417545757862
14.4,0.9398445140020698,0.64750910200677,0.012737180955255636
14.450000000000001,0.9398873593842504,0.6474963751301585,0.012700264144361187
14.5,0.939930441987147,0.6474844292739379,0.012663428509447619
14.55,0.9399737484160867,0.6474732698979604,0.012626677557045201
14.600000000000001,0.9400172651841999,0.6474629022189365,0.012590014813917484
