time,e,omega,d
0,0.942,0.6482532304803152,0.02633076200788132
0.05,0.9420204480381176,0.6482905982503513,0.02624547788064196
0.1,0.9420403082805595,0.6483283491099413,0.02616069891063177
0.15000000000000002,0.9420595737056816,0.6483664721944538,0.026076424514624046
0.2,0.9420782383180057,0.6484049578913805,0.025992654131003275
0.25,0.9420962943005723,0.6484437932617938,0.02590938695177618
0.30000000000000004,0.9421137354886977,0.6484829675046473,0.025826622229549113
0.35000000000000003,0.9421305556131641,0.6485224692473912,0.025744359130992576
0.4,0.942146748600211,0.6485622869996814,0.025662596760265836
0.45,0.9421623085724273,0.6486024091563201,0.025581334159487493
0.5,0.9421772298511752,0.6486428240011292,0.025500570308887374
0.55,0.9421915069587136,0.6486835197105227,0.025420304127038298
0.6000000000000001,0.94220513460753,0.6487244843635034,0.02534053447495658
0.65,0.9422181077432136,0.6487657059243882,0.025261260144024248
0.7000000000000001,0.9422304215016346,0.6488071722701797,0.025182479869949814
0.75,0.9422420712275021,0.6488488711851538,0.02510419232801842
0.8,0.9422530524776221,0.6488907903640365,0.025026396133052464
0.8500000000000001,0.9422633610213078,0.6489329174165581,0.024949089840244278
0.9,0.9422729928420865,0.6489752398713169,0.024872271945601716
0.9500000000000001,0.9422819441393527,0.64901774517968,0.024795940886419756
1,0.9422902113299544,0.6490604207197169,0.024720095041779667
1.05,0.9422977910497142,0.6491032538001635,0.02464473273307547
1.1,0.9423046801548365,0.6491462316642885,0.024569852224548272
1.1500000000000001,0.9423108757234279,0.6491893414942875,0.024495451723915925
1.2000000000000002,0.9423163750567041,0.6492325704150547,0.024421529382938182
1.25,0.9423211756802209,0.6492759054982109,0.024348083298036553
1.3,0.9423252753450999,0.6493193337663434,0.02427511151096333
1.35,0.9423286720291214,0.649362842197111,0.02420261200947196
1.4000000000000001,0.9423313639377566,0.6494064177273977,0.02413058272801229
1.4500000000000002,0.9423333495051276,0.6494500472574923,0.024059021548447714
1.5,0.9423346273948933,0.6494937176552896,0.023987926300792647
1.55,0.9423351965010621,0.6495374157605119,0.023917294763969556
1.6,0.9423350559487295,0.6495811283889483,0.023847124666584722
1.6500000000000001,0.9423342050947385,0.6496248423367128,0.02377741368772191
1.7000000000000002,0.9423326435282666,0.6496685443845166,0.023708159457753113
1.75,0.9423303710713329,0.6497122213019572,0.023639359559165497
1.8,0.9423273877792303,0.6497558598518185,0.023571011527403735
1.85,0.9423236939408782,0.649799446794385,0.02350311285172681
1.9000000000000001,0.9423192900790976,0.6498429688917645,0.023435660976078562
1.9500000000000002,0.9423141769508059,0.6498864129122217,0.02336865329997093
2,0.9423083555471339,0.6499297656345185,0.023302087179379184
2.0500000000000003,0.9423018270934612,0.64997301385226,0.023235959927648226
2.1,0.9422945930493738,0.6500161443782464,0.023170268816409073
2.15,0.9422866551085373,0.650059144048828,0.023105011076504693
2.2,0.9422780151984925,0.6501019997282608,0.023040183898924337
2.25,0.942268675480368,0.6501446983130645,0.0229757844357455
2.3000000000000003,0.9422586383485109,0.6501872267363773,0.022911809801082678
2.35,0.9422479064300371,0.6502295719723095,0.022848257072042025
2.4000000000000004,0.9422364825842975,0.6502717210402921,0.022785123289681183
2.45,0.9422243699022641,0.65031366100942,0.0227224054599733
2.5,0.9422115717058316,0.6503553790027882,0.022660100554774583
2.5500000000000003,0.9421980915470382,0.6503968622018181,0.02259820551279445
2.6,0.9421839332072025,0.6504380978505755,0.02253671724056752
2.6500000000000004,0.9421691006959789,0.6504790732600744,0.022475632613426676
2.7,0.9421535982503295,0.6505197758125694,0.02241494847647642
2.75,0.9421374303334137,0.6505601929658317,0.022354661645565696
2.8000000000000003,0.9421206016333955,0.650600312257409,0.02229476890825953
2.85,0.9421031170621685,0.6506401213088677,0.022235267024808665
2.9000000000000004,0.9420849817539977,0.6506796078300148,0.02217615272911655
2.95,0.9420662010640802,0.6507187596230986,0.02211742272970292
3,0.9420467805670245,0.650757564586987,0.022059073710663325
3.0500000000000003,0.9420267260552466,0.6507960107213209,0.02200110233262391
3.1,0.9420060435372866,0.6508340861306415,0.021943505233690836
3.1500000000000004,0.9419847392360431,0.6508717790284914,0.021886279030393713
3.2,0.9419628195869277,0.6509090777414838,0.021829420318622395
3.25,0.9419402912359399,0.6509459707133444,0.021772925674556586
3.3000000000000003,0.9419171610376611,0.6509824465089179,0.02171679165558774
3.35,0.9418934360531703,0.651018493818143,0.021661014801232618
3.4000000000000004,0.941869123547882,0.6510541014599908,0.02160559163403807
3.45,0.9418442309893041,0.6510892583863664,0.02155051866047649
3.5,0.9418187660447207,0.6511239536859721,0.021495792371831513
3.5500000000000003,0.9417927365787963,0.6511581765881309,0.021441409245073484
3.6,0.9417661506511054,0.6511919164665683,0.02138736574372432
3.6500000000000004,0.9417390165135859,0.6512251628431502,0.02133365831871128
3.7,0.9417113426079191,0.6512579053915784,0.021280283409209396
3.75,0.9416831375628346,0.6512901339410365,0.0212272374434721
3.8000000000000003,0.9416544101913445,0.6513218384797922,0.021174516839649823
3.85,0.9416251694879032,0.6513530091587479,0.021122118006596233
3.9000000000000004,0.9415954246254985,0.6513836362949412,0.021070037344661792
3.95,0.9415651849526713,0.6514137103749944,0.021018271246474537
4,0.9415344599904677,0.6514432220585096,0.020966816097707706
4.05,0.9415032594293217,0.6514721621814096,0.02091566827783415
4.1000000000000005,0.9414715931258718,0.6515005217592221,0.020864824160867306
4.15,0.941439471099713,0.6515282919903073,0.020814280116088598
4.2,0.941406903530082,0.6515554642590247,0.020764032508761205
4.25,0.9413739007524814,0.6515820301388413,0.020714077700830072
4.3,0.9413404732552402,0.6516079813953775,0.020664412051608134
4.3500000000000005,0.9413066316760142,0.6516333099893896,0.02061503191844872
4.4,0.9412723867982276,0.6516580080796892,0.02056593365740412
4.45,0.941237749547454,0.6516820680259956,0.020517113623870393
4.5,0.941202730987744,0.6517054823917222,0.020468568173218387
4.55,0.9411673423178946,0.6517282439466954,0.02042029366141113
4.6000000000000005,0.9411315948676658,0.6517503456698028,0.020372286445607596
4.65,0.9410955000939446,0.6517717807515728,0.020324542884753116
4.7,0.9410590695768581,0.6517925425966812,0.020277059340156407
4.75,0.9410223150158367,0.6518126248263862,0.020229832176053508
4.800000000000001,0.940985248225629,0.651832021280889,0.020182857760158827
4.8500000000000005,0.9409478811322719,0.6518507260216191,0.020136132464203437
4.9,0.9409102257690136,0.6518687333334456,0.020089652664460896
4.95,0.9408722942721961,0.6518860377268095,0.02004341474226089
5,0.940834098877093,0.6519026339397795,0.019997415084490933
5.050000000000001,0.9407956519137104,0.6519185169400282,0.019951650084086437
5.1000000000000005,0.9407569658025483,0.6519336819267293,0.019906116140509498
5.15,0.940718053050325,0.6519481243323733,0.019860809660216663
5.2,0.9406789262456676,0.651961839824503,0.01981572705711618
5.25,0.9406395980547703,0.6519748243073649,0.019770864753014886
5.300000000000001,0.940600081217019,0.6519870739234798,0.01972621917805537
5.3500000000000005,0.9405603885405898,0.651998585055127,0.019681786771143614
5.4,0.9405205328980167,0.6520093543257464,0.019637563980367638
5.45,0.9404805272217363,0.6520193786012533,0.019593547263407562
5.5,0.9404403844996065,0.6520286549912693,0.0195497330879375
5.550000000000001,0.9404001177704043,0.6520371808502647,0.01950611793201977
5.6000000000000005,0.940359740119303,0.6520449537786155,0.019462698284491913
5.65,0.9403192646733308,0.6520519716235714,0.01941947064534693
5.7,0.9402787045968141,0.6520582324801374,0.019376431526107254
5.75,0.940238073086804,0.6520637346918648,0.019333577450193016
5.800000000000001,0.9401973833684926,0.6520684768515553,0.019290904953284962
5.8500000000000005,0.940156648690617,0.6520724578018743,0.01924841058368268
5.9,0.9401158823208543,0.6520756766358747,0.01920609090265855
5.95,0.9400750975412114,0.6520781326974319,0.019163942484807968
6,0.940034307643407,0.6520798255815866,0.019121961918396324
6.050000000000001,0.9399935259242532,0.6520807551347996,0.019080145805703337
6.1000000000000005,0.9399527656810339,0.6520809214551128,0.019038490763365168
6.15,0.939912040206885,0.6520803248922231,0.018996993422714898
6.2,0.9398713627861768,0.6520789660474626,0.01895565043012183
6.25,0.9398307466899007,0.6520768457736892,0.0189144584473302
6.300000000000001,0.9397902051710632,0.6520739651750855,0.01887341415179777
6.3500000000000005,0.9397497514600865,0.6520703256068684,0.01883251423703479
6.4,0.9397093987602219,0.6520659286749055,0.018791755412943856
6.45,0.9396691602429721,0.652060776235244,0.018751134406161166
6.5,0.9396290490435304,0.6520548703935451,0.018710647960399646
6.550000000000001,0.9395890782562338,0.6520482135044321,0.018670292836794417
6.6000000000000005,0.9395492609300345,0.6520408081707455,0.018630065814251102
6.65,0.9395096100639911,0.6520326572427099,0.01858996368979737
6.7,0.9394701386027802,0.6520237638170109,0.018549983278938267
6.75,0.9394308594322321,0.652014131235783,0.01851012141601563
6.800000000000001,0.9393917853748915,0.652003763085509,0.018470374954572166
6.8500000000000005,0.9393529291856036,0.6519926631958308,0.01843074076772042
6.9,0.9393143035471301,0.6519808356382734,0.018391215748517216
6.95,0.9392759210657946,0.6519682847248799,0.018351796810343768
7,0.9392377942671603,0.6519550150067627,0.018312480887291947
7.050000000000001,0.9391999355917409,0.6519410312725663,0.01827326493455702
7.1000000000000005,0.939162357390747,0.6519263385468456,0.018234145928837098
7.15,0.9391250719218703,0.6519109420883599,0.018195120868739742
7.2,0.939088091345104,0.6518948473882831,0.018156186775195853
7.25,0.9390514277186058,0.65187806016833,0.018117340691881274
7.300000000000001,0.939015092994602,0.6518605863788015,0.01807857968564618
7.3500000000000005,0.9389790990153332,0.651842432196547,0.018039900846952655
7.4,0.9389434575090481,0.6518236040228477,0.018001301290320446
7.45,0.9389081800860405,0.651804108481219,0.017962778154781294
7.5,0.9388732782347352,0.6517839524151355,0.017924328604341816
7.550000000000001,0.938838763317824,0.6517631428856775,0.017885949828455167
7.6000000000000005,0.9388046465684508,0.6517416871691011,0.017847639042501567
7.65,0.9387709390864495,0.6517195927543322,0.017809393488277727
7.7,0.9387376518346354,0.6516968673403881,0.01777121043449532
7.75,0.9387047956351512,0.6516735188337227,0.017733087177288442
7.800000000000001,0.9386723811658677,0.6516495553455021,0.017695021040730095
7.8500000000000005,0.9386404189568437,0.6516249851888077,0.01765700937735774
7.9,0.938608919386843,0.6515998168757707,0.017619049568707742
7.95,0.9385778926799109,0.6515740591146372,0.017581139025858762
8,0.9385473489020119,0.6515477208067659,0.01754327518998391
8.05,0.9385172979577291,0.6515208110435614,0.0175054555329116
8.1,0.9384877495870264,0.651493339103341,0.017467677557694884
8.15,0.9384587133620746,0.6514653144481393,0.01742993879918921
8.200000000000001,0.9384301986841425,0.6514367467204509,0.017392236824638217
8.25,0.9384022147805534,0.6514076457399126,0.01735456923426754
8.3,0.9383747707017099,0.651378021499926,0.017316933661886226
8.35,0.9383478753181844,0.6513478841642233,0.01727932777549555
8.4,0.9383215373178792,0.6513172440633764,0.017241749277904887
8.450000000000001,0.9382957652032562,0.651286111691252,0.01720419590735437
8.5,0.9382705672886366,0.6512544977014119,0.01716666543814391
8.55,0.9382459516975707,0.6512224129034645,0.01712915568126821
8.6,0.9382219263602808,0.6511898682593633,0.017091664485057445
8.65,0.9381984990111747,0.6511568748796587,0.017054189735823084
8.700000000000001,0.9381756771864334,0.6511234440197016,0.01701672935850842
8.75,0.9381534682216716,0.6510895870758026,0.01697928131734343
8.8,0.9381318792496726,0.651055315581347,0.01694184361650333
8.85,0.9381109171981977,0.6510206412028671,0.016904414300770394
8.9,0.9380905887878703,0.6509855757360742,0.016866991456198504
8.950000000000001,0.9380709005301365,0.650950131101852,0.01682957321077982
9,0.9380518587252997,0.6509143193422111,0.016792157735113035
9.05,0.938033469460634,0.6508781526162106,0.016754743243072575
9.1,0.9380157386085719,0.6508416431958415,0.016717327992478215
9.15,0.9379986718249708,0.6508048034618814,0.01667991028576435
9.200000000000001,0.937982274547455,0.6507676458997161,0.016642488470648392
9.25,0.9379665519938366,0.6507301830951324,0.016605060940797563
9.3,0.9379515091606135,0.6506924277300833,0.016567626136493395
9.35,0.9379371508215444,0.650654392578428,0.016530182545293273
9.4,0.9379234815263028,0.6506160905016465,0.016492728702688326
9.450000000000001,0.9379105055992085,0.6505775344445317,0.01645526319275688
9.5,0.9378982271380378,0.6505387374308614,0.01641778464881283
9.55,0.9378866500129104,0.6504997125590496,0.016380291754048083
9.600000000000001,0.9378757778652561,0.6504604729977808,0.016342783242168438
9.65,0.9378656141068582,0.6504210319816279,0.01630525789802202
9.700000000000001,0.9378561619189758,0.6503814028066558,0.016267714558219615
9.75,0.9378474242515438,0.6503415988260118,0.016230152111746016
9.8,0.9378394038224503,0.650301633445505,0.01619256950056173
9.850000000000001,0.9378321031168922,0.6502615201191748,0.016154965720194137
9.9,0.9378255243868079,0.6502212723448536,0.01611733982031737
9.950000000000001,0.9378196696503875,0.6501809036597207,0.016079690905320142
10,0.9378145406916596,0.6501404276358517,0.016042018134860676
10.05,0.9378101390601558,0.6500998578757661,0.016004320724408015
10.100000000000001,0.9378064660706499,0.6500592080079701,0.015966597945768827
10.15,0.9378035228029757,0.6500184916825021,0.015928849127599013
10.200000000000001,0.9378013101019186,0.6499777225664771,0.015891073655899254
10.25,0.937799828577183,0.6499369143396349,0.015853270974493752
10.3,0.937799078603436,0.6498960806898915,0.01581544058549141
10.350000000000001,0.9377990603204247,0.649855235308898,0.015777582049728588
10.4,0.937799773633167,0.649814391887604,0.015739694987192784
10.450000000000001,0.9378012182122187,0.6497735641118318,0.01570177907742639
10.5,0.9378033934940105,0.6497327656578593,0.01566383405990986
10.55,0.9378062986812614,0.6496920101880146,0.01562585973442345
10.600000000000001,0.9378099327434611,0.6496513113462837,0.015587855961386936
10.65,0.937814294417427,0.6496106827539317,0.015549822662176431
10.700000000000001,0.93781938220793,0.6495701380051402,0.015511759819417782
10.75,0.9378251943883932,0.6495296906626609,0.015473667477255723
10.8,0.9378317290016583,0.6494893542534882,0.015435545741598163
10.850000000000001,0.9378389838608241,0.6494491422645507,0.015397394780334975
10.9,0.9378469565501515,0.6494090681384235,0.015359214823530606
10.950000000000001,0.9378556444260383,0.6493691452690623,0.015321006163589926
11,0.9378650446180604,0.6493293869975624,0.015282769155396713
11.05,0.9378751540300817,0.6492898066079397,0.015244504216424147
11.100000000000001,0.9378859693414278,0.6492504173229395,0.015206211826816819
11.15,0.9378974870081275,0.6492112322998718,0.015167892529443673
11.200000000000001,0.9379097032642181,0.6491722646264733,0.015129546929921384
11.25,0.9379226141231152,0.6491335273168014,0.015091175696607659
11.3,0.9379362153790457,0.6490950333071555,0.015052779560564037
11.350000000000001,0.9379505026085442,0.6490567954520328,0.015014359315487683
11.4,0.9379654711720101,0.6490188265201139,0.014975915817611797
11.450000000000001,0.9379811162153279,0.6489811391902843,0.01493744998557427
11.5,0.9379974326715464,0.64894374604769,0.014898962800254111
11.55,0.9380144152626186,0.6489066595798276,0.014860455304575443
11.600000000000001,0.9380320585011999,0.6488698921726735,0.014821928603278673
11.65,0.9380503566925052,0.6488334561068486,0.014783383862658572
11.700000000000001,0.9380693039362236,0.6487973635538236,0.014744822310268977
11.75,0.9380888941284885,0.6487616265721627,0.014706245234593992
11.8,0.9381091209639054,0.648726257103809,0.014667653984685355
11.850000000000001,0.9381299779376338,0.6486912669704102,0.014629049969765901
11.9,0.9381514583475226,0.6486566678696883,0.014590434658798931
11.950000000000001,0.9381735552963016,0.6486224713718514,0.014551809580023436
12,0.9381962616938229,0.6485886889160499,0.014513176320455045
12.05,0.9382195702593554,0.6485553318068787,0.014474536525352674
12.100000000000001,0.9382434735239312,0.648522411210924,0.014435891897650897
12.15,0.9382679638327411,0.6484899381533575,0.014397244197358
12.200000000000001,0.9382930333475796,0.6484579235145781,0.01435859524091979
12.25,0.9383186740493396,0.6484263780269007,0.01431994690054931
12.3,0.9383448777405541,0.6483953122712964,0.014281301103522442
12.350000000000001,0.938371636047985,0.6483647366741792,0.014242659831439684
12.4,0.9383989404252585,0.6483346615042456,0.014204025119454174
12.450000000000001,0.9384267821555455,0.6483050968693643,0.01416539905546621
12.5,0.9384551523542873,0.6482760527135183,0.014126783779284582
12.55,0.9384840419719636,0.6482475388137979,0.014088181481754834
12.600000000000001,0.9385134417969051,0.6482195647774487,0.014049594403854915
12.65,0.9385433424581476,0.6481921400389723,0.014011024835758475
12.700000000000001,0.9385737344283273,0.6481652738572813,0.013972475115866193
12.75,0.9386046080266159,0.64813897531291,0.013933947629805554
12.8,0.9386359534216973,0.6481132533052792,0.013895444809399476
12.850000000000001,0.9386677606347812,0.6480881165500186,0.0138569691316043
12.9,0.9387000195426558,0.6480635735763448,0.013818523117417575
12.950000000000001,0.9387327198807778,0.6480396327244967,0.013780109330756175
13,0.9387658512463976,0.6480163021432291,0.01374173037730539
13.05,0.9387994031017223,0.6479935897873638,0.0137033889033394
13.100000000000001,0.9388333647771112,0.6479715034153993,0.013665087594513906
13.15,0.9388677254743069,0.647950050587181,0.013626829174631452
13.200000000000001,0.9389024742696988,0.6479292386616285,0.013588616404380156
13.25,0.9389376001176191,0.6479090747945262,0.013550452080046528
13.3,0.9389730918536707,0.6478895659363713,0.013512339032203067
13.350000000000001,0.9390089381980855,0.6478707188302846,0.01347428012437143
13.4,0.9390451277591125,0.6478525400099824,0.01343627825166189
13.450000000000001,0.939081649036436,0.64783503579781,0.013398336339389928
13.5,0.9391184904246203,0.6478182123028362,0.01336045734167072
13.55,0.9391556402165844,0.6478020754190128,0.01332264423999242
13.600000000000001,0.9391930866071012,0.6477866308233943,0.013284900041769057
13.65,0.9392308176963241,0.6477718839744224,0.013247227778873927
13.700000000000001,0.9392688214933379,0.6477578401102744,0.013209630506154422
13.75,0.9393070859197343,0.6477445042472734,0.013172111299929212
13.8,0.9393455988132113,0.6477318811783649,0.013134673256468648
13.850000000000001,0.9393843479311946,0.6477199754716566,0.013097319490459492
13.9,0.9394233209544814,0.647708791469024,0.013060053133454808
13.950000000000001,0.9394625054909052,0.64769833328478,0.013022877332310086
14,0.9395018890790209,0.6476886048044098,0.012985795247606619
14.05,0.9395414591918095,0.6476796096833729,0.012948810052063086
14.100000000000001,0.9395812032404012,0.6476713513459696,0.01291192492893648
14.15,0.9396211085778167,0.6476638329842737,0.012875143070413325
14.200000000000001,0.9396611625027256,0.6476570575571317,0.012838467675992333
14.25,0.9397013522632207,0.6476510277892287,0.012801901950859527
14.3,0.9397416650606079,0.6476457461702211,0.012765449104256922
14.350000000000001,0.939782088053211,0.6476412149539359,0.01272911234784585
14.4,0.93982260836019,0.6476374361576369,0.012692894894066062
14.450000000000001,0.9398632130653723,0.647634411561359,0.01265679995449164
14.5,0.9399038892210967,0.6476321427073093,0.012620830738184916
14.55,0.9399446238520678,0.6476306308993358,0.012584990450049446
14.600000000000001,0.9399854039592215,0.6476298772024643,0.012549282289183209
