time,e,omega,d
0,0.942,0.6482848842903546,0.02633076200788132
0.05,0.9420213524163265,0.6484167447536663,0.026245226008190844
0.1,0.9420404715434094,0.6485502676351911,0.02616065202101057
0.15000000000000002,0.9420573274300377,0.6486853015798051,0.026077038501438277
0.2,0.9420718959335981,0.6488217123814168,0.025994383370597684
0.25,0.9420841473408336,0.6489593191230947,0.02591268302606324
0.30000000000000004,0.9420940608429408,0.6490979704917692,0.0258319333506088
0.35000000000000003,0.942101617036394,0.6492375072029767,0.025752129333993973
0.4,0.9421067992831593,0.6493777684603568,0.02567326514375965
0.45,0.9421095937242328,0.649518592084785,0.02559533415302008
0.5,0.9421099893168066,0.6496598147075449,0.025518328963529614
0.55,0.9421079778637571,0.649801271947827,0.025442241430915648
0.6000000000000001,0.9421035540404366,0.6499427985934968,0.0253670626909055
0.65,0.942096715418285,0.6500842287836621,0.025292783186514834
0.7000000000000001,0.9420874624851941,0.6502253961929021,0.025219392696073106
0.75,0.9420757986625441,0.650366134216999,0.025146880361963053
0.8,0.9420617303188399,0.6505062761600118,0.025075234719950087
0.8500000000000001,0.9420452667798763,0.6506456554225343,0.025004443728976557
0.9,0.9420264203353623,0.6507841056909796,0.024934494801296177
0.9500000000000001,0.9420052062419432,0.650921461127735,0.024865374832824277
1,0.9419816427225588,0.6510575565620296,0.024797070233580926
1.05,0.9419557509620818,0.6511922276813632,0.024729566958105506
1.1,0.9419275550991862,0.6513253112233384,0.024662850535723802
1.1500000000000001,0.9418970822143958,0.6514566451677453,0.02459690610055143
1.2000000000000002,0.9418643623142722,0.6515860689287456,0.02453171842112083
1.25,0.9418294283117045,0.6517134235470039,0.024467271929523027
1.3,0.9417923160022669,0.6518385518816133,0.024403550749959785
1.35,0.9417530640366172,0.6519612988016618,0.02434053872660662
1.4000000000000001,0.9417117138889147,0.6520815113772873,0.024278219450692702
1.4500000000000002,0.9416683098212398,0.6521990390700627,0.02421657628670933
1.5,0.9416228988440057,0.6523137339225532,0.024155592397665095
1.55,0.9415755306723569,0.6524254507468835,0.02409525076931237
1.6,0.9415262576785554,0.6525340473121488,0.024035534233276857
1.6500000000000001,0.9414751348403633,0.6526393845304953,0.02397642548902926
1.7000000000000002,0.9414222196854355,0.6527413266416947,0.023917907124645817
1.75,0.9413675722317435,0.6528397413960244,0.023859961636312262
1.8,0.941311254924058,0.6529345002352601,0.02380257144653411
1.85,0.941253332566526,0.6530254784715769,0.023745718921024294
1.9000000000000001,0.9411938722513842,0.6531125554641446,0.023689386384247873
1.9500000000000002,0.9411329432838592,0.6531956147931912,0.02363355613361203
2,0.9410706169725962,0.6532745441511427,0.02357821045272722
2.0500000000000003,0.9410069669781395,0.6533492363929368,0.02352333161989318
2.1,0.9409420687401845,0.6534195887525518,0.023468901923486118
2.15,0.9408759995768011,0.6534855033476998,0.023414903667614784
2.2,0.9408088386027762,0.6535468873689055,0.023361319180180085
2.25,0.940740666619264,0.6536036532054555,0.023308130819111483
2.3000000000000003,0.9406715660138194,0.6536557185935818,0.023255320977516706
2.35,0.9406016206575408,0.6537030067605856,0.023202872087655948
2.4000000000000004,0.9405309157992627,0.6537454465637969,0.02315076662383625
2.45,0.9404595379568775,0.6537829726239811,0.023098987104306506
2.5,0.9403875748059527,0.6538155254528507,0.02304751609222878
2.5500000000000003,0.9403151150657929,0.6538430515742971,0.022996336195811935
2.6,0.9402422483831124,0.6538655036389562,0.022945430067699137
2.6500000000000004,0.9401690652134884,0.6538828405317124,0.022894780403706586
2.7,0.9400956567007802,0.6538950274717427,0.022844369941016077
2.75,0.940022114565655,0.6539020362862908,0.022794181457180665
2.8000000000000003,0.9399485309480293,0.6539038450438679,0.022744197764969408
2.85,0.9398749983060143,0.6539004383971558,0.02269440171057037
2.9000000000000004,0.9398016092968,0.6538918077381003,0.02264477617145356
2.95,0.9397284566396004,0.653877950747592,0.0225953040509008
3,0.9396556330015723,0.6538588727925223,0.022545968280992822
3.0500000000000003,0.9395832308352075,0.6538345854787639,0.022496751815677094
3.1,0.9395113422710634,0.6538051072327353,0.022447637629101198
3.1500000000000004,0.939440058985836,0.6537704633598147,0.02239860871479314
3.2,0.9393694720511071,0.6537306861962994,0.02234964808526927
3.25,0.9392996718513074,0.6536858146267454,0.022300738770614923
3.3000000000000003,0.9392307479322437,0.6536358943517667,0.022251863819159917
3.35,0.9391627888656361,0.6535809779531666,0.022203006299489313
3.4000000000000004,0.9390958822016637,0.6535211243394271,0.022154149301046196
3.45,0.9390301141261435,0.6534564000519071,0.02210527594240154
3.5,0.9389655695610097,0.6533868776934149,0.02205636937346727
3.5500000000000003,0.9389023319690901,0.6533126364219872,0.02200741278147032
3.6,0.9388404832256931,0.6532337619034316,0.021958389399192646
3.6500000000000004,0.9387801034573269,0.6531503463407291,0.02190928251612734
3.7,0.9387212710517622,0.6530624879243067,0.0218600754848534
3.75,0.9386640624776372,0.6529702909750775,0.021810751734954396
3.8000000000000003,0.9386085521531724,0.6528738658981824,0.021761294787600884
3.85,0.9385548125001406,0.6527733285884648,0.02171168826314491
3.9000000000000004,0.9385029134152137,0.6526688014551743,0.021661915919152928
3.95,0.938452922630064,0.6525604119340067,0.02161196164834188
4,0.9384049054546407,0.6524482928188954,0.021561809505032486
4.05,0.9383589246721596,0.6523325821103766,0.02151144372774128
4.1000000000000005,0.9383150404674271,0.6522134227836924,0.021460848761998576
4.15,0.9382733103466065,0.652090962585513,0.021410009284981265
4.2,0.9382337890610436,0.6519653538233636,0.02135891023166132
4.25,0.9381965285356577,0.6518367531476819,0.021307536822314756
4.3,0.9381615778020026,0.6517053213269326,0.021255874591307986
4.3500000000000005,0.9381289829379972,0.6515712230240425,0.021203909416097323
4.4,0.9380987870047776,0.6514346265380394,0.021151627551083987
4.45,0.9380710299989032,0.6512957035780886,0.021099015657459825
4.5,0.938045748805368,0.6511546290199305,0.021046060835769386
4.55,0.9380229771527824,0.6510115806477845,0.020992750660511716
4.6000000000000005,0.9380027455760772,0.6508667389016793,0.020939073214153312
4.65,0.9379850813835968,0.6507202866188344,0.02088501712204157
4.7,0.9379700086291145,0.6505724087757496,0.020830571587201963
4.75,0.9379575480898982,0.6504232922345501,0.020775726424519535
4.800000000000001,0.9379477172470736,0.650273125470948,0.02072047209725308
4.8500000000000005,0.9379405302727569,0.6501220983146991,0.02066479975155946
4.9,0.9379359980216596,0.6499704016959663,0.020608701249957197
4.95,0.93793412802634335,0.6498182273588732,0.020552169208668748
5,0.9379349244988058,0.6496657676189642,0.020495197028519756
5.050000000000001,0.9379383883355713,0.6495132151067847,0.02043777892716395
5.1000000000000005,0.9379445171268901,0.6493607625013457,0.020379909971868213
5.15,0.9379533051707539,0.6492086022760871,0.020321586109712235
5.2,0.9379647434912145,0.6490569264442587,0.020262804196868264
5.25,0.93797881986031,0.6489059263098303,0.020203562026174786
5.300000000000001,0.9379955188238412,0.6487557922280416,0.02014385835227446
5.3500000000000005,0.9380148217319483,0.648606713352284,0.020083692917035503
5.4,0.9380367067727302,0.6484588773981128,0.020023066471455037
5.45,0.9380611490095463,0.6483124704088665,0.019961980795829663
5.5,0.9380881204218285,0.648167676525406,0.0199004387177775
5.550000000000001,0.9381175899492332,0.6480246777605867,0.019838444127941012
5.6000000000000005,0.938149523539003,0.6478836537787027,0.019776001993258248
5.65,0.9381838841964075,0.647744781680087,0.019713118367698654
5.7,0.9382206320363228,0.6476082357977946,0.0196498004001447
5.75,0.9382597243443654,0.6474741874736057,0.019586056340527288
5.800000000000001,0.9383011156322176,0.6473428048743498,0.019521895541756422
5.8500000000000005,0.9383447576982503,0.6472142528012732,0.019457328459394796
5.9,0.9383905996930908,0.6470886924957518,0.01939236664883907
5.95,0.9384385881855385,0.6469662814593151,0.019327022759141124
6,0.9384886672309087,0.6468471732784208,0.019261310523938365
6.050000000000001,0.938540778441536,0.6467315174551148,0.019195244749398436
6.1000000000000005,0.9385948610592483,0.6466194592437875,0.019128841299166734
6.15,0.938650852029703,0.6465111394941055,0.019062117076322868
6.2,0.9387086860784815,0.6464066945001438,0.018995090002362436
6.25,0.9387682957888388,0.6463062558557402,0.018927778993232683
6.300000000000001,0.9388296116810148,0.6462099503160924,0.018860203932461947
6.3500000000000005,0.9388925622930092,0.6461178996656045,0.018792385641434088
6.4,0.9389570742627348,0.6460302205919887,0.01872434584686997
6.45,0.9390230724114605,0.6459470245666193,0.018656107145589008
6.5,0.9390904798284653,0.6458684177311359,0.018587692966634126
6.550000000000001,0.9391592179568222,0.6457945007902827,0.018519127530853653
6.6000000000000005,0.9392292066802221,0.6457253689108505,0.018450435808091206
6.65,0.9393003644108591,0.6456611116272822,0.018381643471872103
6.7,0.9393726081781423,0.645601812752939,0.018312776852096323
6.75,0.9394458537182934,0.645547550297672,0.018243862885601477
6.800000000000001,0.9395200155647614,0.6454983963916849,0.018174929064733628
6.8500000000000005,0.939595007139374,0.6454544172155189,0.018106003384135167
6.9,0.9396707408441622,0.6454156729360886,0.018037114285916794
6.95,0.9397471281538201,0.6453822176488377,0.01796829060333985
7,0.9398240797087491,0.6453540993259732,0.017899561503180873
7.050000000000001,0.9399015054086359,0.6453313597707568,0.01783095642694815
7.1000000000000005,0.939979314506519,0.6453140345778389,0.017762505031123928
7.15,0.9400574157032996,0.64530215309961525,0.017694237126610047
7.2,0.9401357172426543,0.6452957384185912,0.017626182617557752
7.25,0.9402141270063056,0.6452948073257371,0.017558371439764936
7.300000000000001,0.9402925526096094,0.6452993703048227,0.017490833498823466
7.3500000000000005,0.9403709014974183,0.6453094315227148,0.017423598608215442
7.4,0.9404490810401807,0.6453249888256293,0.017356696427522012
7.45,0.9405269986302325,0.6453460337413216,0.017290156400952706
7.5,0.9406045617782427,0.6453725514872106,0.017224007696368768
7.550000000000001,0.9406816782097663,0.6454045209844199,0.017158279144993578
7.6000000000000005,0.9407582559618662,0.6454419148777306,0.017092999181985116
7.65,0.9408342034797551,0.645484699561434,0.01702819578805227
7.7,0.9409094297134155,0.645532835211075,0.01696389643229059
7.75,0.9409838442141478,0.6455862758210743,0.01690012801640875
7.800000000000001,0.9410573572309967,0.6456449692482193,0.016836916820512283
7.8500000000000005,0.9411298798070068,0.6457088572610094,0.016774288450605676
7.9,0.9412013238752501,0.6457778755948427,0.01671226778796794
7.95,0.9412716023545712,0.6458519540130271,0.01665087894054998
8,0.9413406292449903,0.6459310163735975,0.01659014519653514
8.05,0.9414083197227017,0.6460149807019159,0.01653008898019624
8.1,0.9414745902346028,0.646103759269032,0.01647073181017444
8.15,0.9415393585922851,0.6461972586757743,0.01641209426029628
8.200000000000001,0.9416025440654174,0.6462953799425389,0.016354195923036316
8.25,0.9416640674744441,0.6463980186047397,0.016297055375722853
8.3,0.9417238512825231,0.6465050648138766,0.01624069014957446
8.35,0.9417818196866198,0.6466164034441758,0.016185116701644478
8.4,0.9418378987076746,0.6467319142047478,0.016130350389740047
8.450000000000001,0.941892016279755,0.646851471757204,0.016076405450371332
8.5,0.9419441023381006,0.6469749458386646,0.016023294979774897
8.55,0.9419940889059663,0.6471022013900888,0.01597103091804536
8.6,0.9420419101801709,0.6472330986898437,0.015919624036394634
8.65,0.9420875026152423,0.647367493492429,0.015869083927550074
8.700000000000001,0.9421308050060617,0.6475052371722567,0.01581941899929004
8.75,0.9421717585688998,0.6476461768723917,0.015770636471101523
8.8,0.9422103070207352,0.6477901556581385,0.01572274237393536
8.85,0.9422463966567453,0.6479370126753597,0.015675741553022024
8.9,0.9422799764258561,0.6480865833134003,0.015629637673699466
8.950000000000001,0.9423109980042357,0.6482386993724853,0.015584433230193399
9,0.9423394158666155,0.6483931892354542,0.015540129557279255
9.05,0.9423651873553218,0.6485498780436829,0.015496726844744414
9.1,0.9423882727468976,0.6487085878770431,0.015454224154558913
9.15,0.9424086353161975,0.6488691379377389,0.015412619440652807
9.200000000000001,0.9424262413978328,0.6490313447378573,0.015371909571188787
9.25,0.94244106044485,0.6491950222904621,0.015332090353209626
9.3,0.94245306508452,0.6493599823040587,0.015293156559531432
9.35,0.9424622311711207,0.6495260343802514,0.015255101957745685
9.4,0.9424685378355958,0.6496929862144131,0.015217919341185658
9.450000000000001,0.9424719675319685,0.6498606437991844,0.015181600561706083
9.5,0.9424725060803992,0.6500288116306193,0.015146136564118859
9.55,0.942470142706772,0.6501972929167908,0.015111517422122158
9.600000000000001,0.9424648700786965,0.6503658897886754,0.01507773237555576
9.65,0.9424566843378197,0.6505344035131301,0.015044769868811491
9.700000000000001,0.9424455851283384,0.6507026347077851,0.015012617590224573
9.75,0.9424315756216114,0.6508703835576716,0.01498126251226937
9.8,0.9424146625367698,0.6510374500334114,0.014950690932381477
9.850000000000001,0.9423948561572311,0.6512036341107992,0.014920888514227543
9.9,0.9423721703430237,0.6513687359916155,0.01489184032924675
9.950000000000001,0.9423466225388308,0.6515325563254987,0.014863530898274151
10,0.9423182337776764,0.6516948964327454,0.01483594423309255
10.05,0.9422870286801677,0.6518555585278716,0.014809063877718999
10.100000000000001,0.942253035449223,0.6520143459438071,0.014782872949267875
10.15,0.9422162858602103,0.6521710633565786,0.014757354178216504
10.200000000000001,0.9421768152464376,0.6523255170103601,0.014732489947918974
10.25,0.9421346624799304,0.6524775149427664,0.01470826233321089
10.3,0.9420898699474448,0.6526268672102683,0.014684653137956008
10.350000000000001,0.9420424835216678,0.6527733861136176,0.014661643931393522
10.4,0.941992552527558,0.6529168864231694,0.014639216083152091
10.450000000000001,0.9419401297037969,0.6530571856039894,0.014617350796805161
10.5,0.9418852711593098,0.6531941040406368,0.014596029141851345
10.55,0.9418280363248432,0.6533274652615088,0.014575232084012728
10.600000000000001,0.9417684878995713,0.6534570961626291,0.014554940513754736
10.65,0.9417066917927261,0.6535828272307569,0.014535135272941105
10.700000000000001,0.9416427170602448,0.6537044927656849,0.014515797179549162
10.75,0.9415766358364389,0.653821931101579,0.014496907050380795
10.8,0.9415085232606957,0.6539349848272089,0.01447844572171939
10.850000000000001,0.9414384573992314,0.6540435010048904,0.014460394067891147
10.9,0.9413665191619245,0.6541473313879468,0.014442733017702472
10.950000000000001,0.9412927922142642,0.6542463326364787,0.01442544356874105
11,0.9412173628844619,0.6543403665312026,0.014408506799537228
11.05,0.9411403200657795,0.6544293001850933,0.014391903879596452
11.100000000000001,0.9410617551141421,0.6545130062525379,0.014375616077326401
11.15,0.9409817617411101,0.654591363135679,0.014359624765895498
11.200000000000001,0.940900435902299,0.6546642551875896,0.014343911427071972
11.25,0.940817875681347,0.654731572911897,0.01432845765310567
11.3,0.9407341811695417,0.6547932131584279,0.014313245146727063
11.350000000000001,0.9406494543412286,0.6548490793144266,0.014298255719350436
11.4,0.9405637989251415,0.654899081490851,0.014283471287579945
11.450000000000001,0.940477320271803,0.654943136703231,0.014268873868128973
11.5,0.9403901252171614,0.6549811690465321,0.014254445571274348
11.55,0.9403023219426414,0.6550131098634474,0.014240168592977385
11.600000000000001,0.9402140198318042,0.655038897905507,0.014226025205813987
11.65,0.94012532932382,0.6550584794863756,0.014211997748865153
11.700000000000001,0.9400363617639801,0.6550718086266909,0.014198068616727911
11.75,0.939947229251482,0.6550788471897759,0.014184220247814478
11.8,0.9398580444847391,0.6550795650075554,0.014170435112114287
11.850000000000001,0.9397689206044801,0.6550739399959985,0.014156695698599462
11.9,0.9396799710349171,0.655061958259415,0.014142984502459186
11.950000000000001,0.9395913093232713,0.6550436141829397,0.014129284012352293
12,0.9395030489779642,0.6550189105125549,0.014115576697869966
12.05,0.9394153033057857,0.6549878584220271,0.014101844997401908
12.100000000000001,0.9393281852483671,0.6549504775661565,0.014088071306599677
12.15,0.9392418072182925,0.6549067961197819,0.014074237967629586
12.200000000000001,0.9391562809351934,0.6548568508020194,0.014060327259405335
12.25,0.9390717172621752,0.6548006868852698,0.014046321388986769
12.3,0.9389882260429305,0.654738358188578,0.014032202484325997
12.350000000000001,0.9389059159399002,0.654669927054994,0.014017952588535807
12.4,0.9388248942738394,0.6545954643126517,0.014003553655847396
12.450000000000001,0.9387452668651532,0.6545150492193457,0.013988987549415462
12.5,0.9386671378773592,0.6544287693904708,0.013974236041118285
12.55,0.9385906096630338,0.654336720710257,0.013959280813488911
12.600000000000001,0.9385157826125923,0.6542390072263161,0.01394410346390067
12.65,0.9384427550062476,0.6541357410275987,0.013928685511116591
12.700000000000001,0.9383716228694824,0.6540270421059339,0.013913008404297253
12.75,0.938302479832356,0.6539130382014109,0.013897053534546022
12.8,0.938235416992963,0.6537938646319371,0.013880802249053864
12.850000000000001,0.9381705227853356,0.6536696641073811,0.013864235867888864
12.9,0.9381078828520761,0.6535405865287847,0.01384733570345757
12.950000000000001,0.9380475799219817,0.6534067887731957,0.01383008308264708
13,0.9379896936929119,0.6532684344647351,0.01381245937163827
13.05,0.9379343007201224,0.6531256937325733,0.013794446003361669
13.100000000000001,0.9378814743102768,0.6529787429565407,0.013776024507548798
13.15,0.9378312844213197,0.6528277645011463,0.013757176543313048
13.200000000000001,0.9377837975683765,0.6526729464388158,0.013737883934175802
13.25,0.9377390767358246,0.6525144822631948,0.01371812870543535
13.3,0.9376971812956532,0.6523525705933895,0.01369789312375871
13.350000000000001,0.9376581669322109,0.6521874148700372,0.01367715973885948
13.4,0.9376220855734171,0.652019223044108,0.013655911427108772
13.450000000000001,0.9375889853284884,0.6518482072593507,0.013634131436910937
13.5,0.9375589104322232,0.6516745835292995,0.013611803435660595
13.55,0.937531901195876,0.6514985714096566,0.013588911558105514
13.600000000000001,0.9375079939643792,0.6513203936672556,0.013565440455826035
13.65,0.937487221080339,0.6511402759459858,0.013541375347746304
13.700000000000001,0.9374696108544256,0.6509584464308718,0.013516702071357396
13.75,0.9374551875420989,0.6507751355111092,0.01349140713441996
13.8,0.9374439713267124,0.6505905754403124,0.013465477767305195
13.850000000000001,0.9374359783085935,0.6504050000012069,0.01343890197470445
13.9,0.9374312205011123,0.6502186441795886,0.013411668585895473
13.950000000000001,0.9374297058311541,0.6500317438172897,0.01338376730803744
14,0.9374314381466421,0.6498445352849896,0.013355188775972221
14.05,0.9374364172288769,0.6496572551653551,0.013325924600001841
14.100000000000001,0.9374446388121025,0.6494701398983856,0.013295967418647409
14.15,0.9374560946067088,0.6492834254848115,0.013265310941652826
14.200000000000001,0.9374707723277416,0.6490973471749515,0.013233949994288946
14.25,0.9374886557290959,0.648912139147811,0.0132018805619086
14.3,0.9375097246422143,0.6487280342086543,0.013169099830223071
14.350000000000001,0.9375339550197894,0.6485452634886331,0.013135606223662522
14.4,0.9375613189831125,0.6483640561534424,0.013101399440829923
14.450000000000001,0.9375917848729471,0.6481846391261694,0.01306648048596183
14.5,0.9376253173070689,0.6480072367962978,0.013030851700074808
14.55,0.9376618772397004,0.6478320707513819,0.012994516786760998
