time,e,omega,d
0,0.942,0.6483481919104335,0.02633076200788132
0.05,0.9420256165793272,0.6483833974590074,0.02624403018551001
0.1,0.942050661031956,0.6484191706336642,0.02615780877486954
0.15000000000000002,0.9420751232857831,0.6484555024834092,0.02607209808292635
0.2,0.9420989946473657,0.6484923850239592,0.025986898325674457
0.25,0.9421222636692326,0.6485298074309077,0.025902209730359733
0.30000000000000004,0.942144921157757,0.6485677605565394,0.025818032397796866
0.35000000000000003,0.9421669576554024,0.6486062347013581,0.025734366376942642
0.4,0.9421883638683188,0.6486452199844552,0.025651211650876065
0.45,0.9422091306679886,0.6486847063459387,0.0255685681368659
0.5,0.9422292490948135,0.6487246835495777,0.02548643568598616
0.55,0.9422487103612961,0.6487651411852651,0.025404814082856535
0.6000000000000001,0.942267505844158,0.6488060686821568,0.025323703049596896
0.65,0.9422856271227298,0.648847455276691,0.025243102232209998
0.7000000000000001,0.9423030659436076,0.6488892900536991,0.025163011215180053
0.75,0.942319814237906,0.6489315619343916,0.025083429515863523
0.8,0.9423358641255452,0.648974259677955,0.025004356583943316
0.8500000000000001,0.942351207917064,0.649017371885458,0.024925791801843112
0.9,0.9423658381165623,0.6490608870026254,0.0248477344847266
0.9500000000000001,0.9423797474246125,0.6491047933226467,0.024770183880530827
1,0.9423929287411311,0.6491490789890241,0.02469313917003585
1.05,0.9424053751682061,0.6491937319984578,0.024616599466970413
1.1,0.942417080012882,0.6492387402037684,0.024540563818153168
1.1500000000000001,0.9424280367899018,0.6492840913168553,0.02446503120366911
1.2000000000000002,0.9424382392244018,0.649329772911692,0.024390000537080667
1.25,0.9424476812545632,0.6493757724273559,0.02431547066567305
1.3,0.9424563570342153,0.6494220771710928,0.02424144037073337
1.35,0.9424642609353916,0.6494686743214156,0.024167908367863002
1.4000000000000001,0.9424713875508378,0.6495155509312364,0.024094873307322583
1.4500000000000002,0.9424777316964699,0.6495626939310309,0.024022333774409134
1.5,0.9424832884137821,0.6496100901320364,0.0239502882898647
1.55,0.9424880529722042,0.6496577262294793,0.02387873531031586
1.6,0.9424920208714058,0.6497055888058353,0.02380767322874347
1.6500000000000001,0.9424951878435492,0.6497536643341204,0.023737100374981942
1.7000000000000002,0.9424975498554872,0.6498019391812097,0.023667015016247423
1.75,0.9424991031109061,0.6498503996111878,0.0235974153576941
1.8,0.9424998440524149,0.6498990317887278,0.023528299542997917
1.85,0.9424997693635763,0.6499478217824973,0.023459665654966953
1.9000000000000001,0.9424988759708811,0.6499967555685944,0.02339151171617769
1.9500000000000002,0.9424971610456652,0.6500458190340087,0.023323835689636318
2,0.9424946220059662,0.6500949979801123,0.02325663547946438
2.0500000000000003,0.9424912565183221,0.6501442781261746,0.02318990893160781
2.1,0.9424870624994516,0.6501936451127887,0.02312365383454441
2.15,0.9424820381180912,0.6502430845057668,0.023057867920104932
2.2,0.9424761817964802,0.6502925817994829,0.02299254886419597
2.25,0.9424694922118892,0.650342122420442,0.02292769428758406
2.3000000000000003,0.9424619682981653,0.6503916917310398,0.022863301756732863
2.35,0.9424536092471402,0.6504412750332058,0.02279936878462972
2.4000000000000004,0.9424444145099838,0.6504908575720905,0.022735892831633554
2.45,0.942434383798494,0.6505404245397804,0.022672871306340065
2.5,0.9424235170863181,0.6505899610790369,0.022610301566462182
2.5500000000000003,0.9424118146101069,0.650639452287058,0.022548180919725113
2.6,0.9423992768706002,0.6506888832192633,0.02248650662477478
2.6500000000000004,0.9423859046336416,0.6507382388931023,0.022425275892098927
2.7,0.9423716989311242,0.6507875042918844,0.022364485884959737
2.75,0.942356661061864,0.6508366643686319,0.022304133720337172
2.8000000000000003,0.9423407925924022,0.6508857040499557,0.02224421646988196
2.85,0.9423240953577342,0.6509346082399533,0.022184731160877318
2.9000000000000004,0.9423065714619648,0.6509833618241276,0.022125674777208438
2.95,0.9422882232788907,0.6510319496733298,0.02206704426033881
3,0.9422690534525054,0.6510803566477231,0.02200883651029235
3.0500000000000003,0.942249064897431,0.6511285676007686,0.021951048386640488
3.1,0.9422282607992715,0.6511765673832333,0.021893676709493128
3.1500000000000004,0.9422066446148897,0.65122434084722,0.02183671826049272
3.2,0.9421842200726064,0.6512718728502191,0.021780169783810324
3.25,0.9421609911723199,0.651319148259183,0.021724027987142878
3.3000000000000003,0.9421369621855472,0.6513661519546208,0.021668289542710675
3.35,0.942112137655384,0.6514128688347172,0.02161295108825417
3.4000000000000004,0.9420865223963848,0.6514592838194725,0.021558009228029192
3.45,0.9420601214943604,0.6515053818548645,0.021503460533799763
3.5,0.9420329403060944,0.651551147917033,0.021449301545827498
3.5500000000000003,0.9420049844589757,0.6515965670164866,0.021395528773856892
3.6,0.9419762598505479,0.6516416242023321,0.021342138698095547
3.6500000000000004,0.9419467726479743,0.6516863045665259,0.02128912777018852
3.7,0.9419165292874183,0.6517305932481483,0.021236492414186046
3.75,0.9418855364733377,0.6517744754377001,0.021184229027503797
3.8000000000000003,0.9418538011776929,0.6518179363814223,0.02113233398187486
3.85,0.9418213306390686,0.6518609613856382,0.021080803624292797
3.9000000000000004,0.9417881323617077,0.6519035358211186,0.021029634277944933
3.95,0.9417542141144573,0.6519456451274692,0.020978822243135263
4,0.9417195839296258,0.6519872748175414,0.020928363798196226
4.05,0.941684250101751,0.6520284104818656,0.02087825520038868
4.1000000000000005,0.9416482211862782,0.6520690377931077,0.02082849268678948
4.15,0.9416115059981481,0.6521091425105476,0.020779072475166038
4.2,0.9415741136102934,0.6521487104845817,0.020729990764837235
4.25,0.941536053352044,0.6521877276612454,0.02068124373752015
4.3,0.9414973348074412,0.6522261800867613,0.02063282755816212
4.3500000000000005,0.9414579678134578,0.6522640539121066,0.02058473837575749
4.4,0.9414179624581261,0.6523013353976048,0.02053697232414877
4.45,0.941377329078573,0.6523380109175373,0.02048952552281157
4.5,0.94133607825896,0.6523740669647771,0.02044239407762301
4.55,0.9412942208283304,0.6524094901554435,0.020395574081613202
4.6000000000000005,0.9412517678583605,0.652444267233578,0.020349061615699392
4.65,0.9412087306610167,0.652478385075838,0.020302852749402543
4.7,0.9411651207861166,0.6525118306962131,0.020256943541545988
4.75,0.9411209500187947,0.6525445912507574,0.020211330040935935
4.800000000000001,0.9410762303768725,0.6525766540423417,0.020166008287023595
4.8500000000000005,0.9410309741081317,0.6526080065254223,0.020120974310548826
4.9,0.9409851936874911,0.6526386363108264,0.02007622413416496
4.95,0.9409389018140869,0.6526685311705533,0.02003175377304493
5,0.9408921114082565,0.6526976790425902,0.019987559235468452
5.050000000000001,0.9408448356084242,0.6527260680357407,0.019943636523390304
5.1000000000000005,0.9407970877678921,0.6527536864344664,0.019899981632989703
5.15,0.9407488814515305,0.6527805227037389,0.01985659055520075
5.2,0.9407002304323747,0.6528065654939017,0.019813459276224077
5.25,0.9406511486881223,0.6528318036455396,0.019770583778019823
5.300000000000001,0.9406016503975341,0.6528562261943551,0.019727960038782015
5.3500000000000005,0.940551749936739,0.6528798223760496,0.019685584033394606
5.4,0.9405014618754405,0.6529025816312063,0.019643451733869357
5.45,0.9404508009730281,0.652924493610176,0.01960155910976589
5.5,0.940399782174592,0.6529455481779604,0.01955990212859409
5.550000000000001,0.9403484206068412,0.6529657354190919,0.019518476756199356
5.6000000000000005,0.9402967315739276,0.6529850456425106,0.019477278957130965
5.65,0.9402447305531725,0.6530034693864297,0.019436304694993974
5.7,0.940192433190702,0.6530209974231931,0.019395549932785187
5.75,0.9401398552969844,0.6530376207641195,0.019355010633213637
5.800000000000001,0.9400870128422774,0.6530533306643304,0.01931468275900605
5.8500000000000005,0.9400339219519805,0.6530681186275598,0.019274562273198
5.9,0.9399805989018964,0.6530819764109427,0.019234645139411217
5.95,0.939927060113401,0.653094896029778,0.01919492732211774
6,0.9398733221485225,0.6531068697622653,0.0191554047868917
6.050000000000001,0.9398194017049325,0.6531178901542087,0.01911607350064916
6.1000000000000005,0.9397653156108474,0.6531279500236875,0.019076929431877103
6.15,0.9397110808198431,0.6531370424656879,0.019037968550852092
6.2,0.9396567144055843,0.6531451608566938,0.018999186829849458
6.25,0.9396022335564682,0.6531522988592314,0.018960580243344006
6.300000000000001,0.939547655570185,0.6531584504263648,0.01892214476820287
6.3500000000000005,0.9394929978481975,0.6531636098061389,0.018883876383871637
6.4,0.9394382778901381,0.6531677715459637,0.018845771072554494
6.45,0.9393835132881289,0.6531709304969386,0.018807824819389522
6.5,0.9393287217210238,0.6531730818181105,0.01877003361261994
6.550000000000001,0.9392739209485754,0.6531742209806618,0.01873239344376246
6.6000000000000005,0.939219128805528,0.6531743437720247,0.018694900307773692
6.65,0.939164363195639,0.653173446299916,0.018657550203215675
6.7,0.9391096420856312,0.6531715249962903,0.0186203391324216
6.75,0.9390549834990766,0.6531685766212039,0.018583263101662847
6.800000000000001,0.9390004055102158,0.6531645982665875,0.018546318121318378
6.8500000000000005,0.938945926237714,0.6531595873599215,0.01850950020604768
6.9,0.9388915638383557,0.6531535416678109,0.018472805374968336
6.95,0.9388373365006822,0.6531464592994526,0.018436229651839393
7,0.9387832624385724,0.653138338709993,0.018399769065251693
7.050000000000001,0.938729359884771,0.6531291787037702,0.01836341964882629
7.1000000000000005,0.9386756470843663,0.6531189784374355,0.018327177441422215
7.15,0.9386221422882198,0.6531077374229506,0.01829103848735459
7.2,0.938568863746352,0.6530954555304553,0.018254998836624438
7.25,0.9385158297012848,0.6530821329910017,0.018219054545161303
7.300000000000001,0.938463058381347,0.6530677703991494,0.01818320167507974
7.3500000000000005,0.9384105679939427,0.6530523687154178,0.01814743629495103
7.4,0.938358376718787,0.6530359292685916,0.018111754480091093
7.45,0.9383065027011135,0.6530184537578742,0.01807615231286586
7.5,0.9382549640448549,0.6529999442548851,0.018040625883015166
7.550000000000001,0.9382037788058009,0.6529804032054973,0.01800517128799629
7.6000000000000005,0.9381529649847372,0.6529598334315108,0.01796978463334829
7.65,0.9381025405205687,0.6529382381321578,0.017934462033078087
7.7,0.9380525232834303,0.6529156208854356,0.017899199610069486
7.75,0.9380029310677891,0.6528919856492651,0.01786399349651607
7.800000000000001,0.9379537815855418,0.6528673367624683,0.017828839834378992
7.8500000000000005,0.9379050924591111,0.6528416789455654,0.017793734775870578
7.9,0.937856881214544,0.6528150173013846,0.017758674483964808
7.95,0.9378091652746162,0.6527873573154838,0.01772365513293541
8,0.9377619619519478,0.6527587048563807,0.017688672908922506
8.05,0.9377152884421318,0.6527290661755888,0.017653724010528653
8.1,0.9376691618168802,0.652698447907455,0.01761880464944497
8.15,0.9376235990171927,0.652666857068801,0.017583911051108122
8.200000000000001,0.9375786168465505,0.6526343010583604,0.017549039455388923
8.25,0.9375342319641395,0.6526007876560154,0.01751418611731297
8.3,0.9374904608781067,0.6525663250218267,0.017479347307814128
8.35,0.937447319938854,0.6525309216948589,0.01744451931452125
8.4,0.9374048253323741,0.6524945865917978,0.017409698442578607
8.450000000000001,0.9373629930736302,0.6524573290053601,0.017374881015500457
8.5,0.9373218389999854,0.6524191586024929,0.017340063376060158
8.55,0.9372813787646852,0.6523800854223653,0.01730524188721394
8.6,0.9372416278303962,0.6523401198741496,0.01727041293305978
8.65,0.9372026014628061,0.6522992727345933,0.017235572919831327
8.700000000000001,0.9371643147242875,0.652257555145381,0.017200718276927117
8.75,0.9371267824676299,0.6522149786102885,0.017165845457975015
8.8,0.937090019329844,0.6521715549921285,0.017130950941931844
8.85,0.9370540397260414,0.6521272965094888,0.017096031234218104
8.9,0.9370188578433926,0.652082215733265,0.017061082867887586
8.950000000000001,0.9369844876351693,0.65203632558299,0.017026102404831555
9,0.9369509428148713,0.6519896393229592,0.016991086437017286
9.05,0.9369182368504448,0.6519421705581568,0.016956031587760396
9.1,0.936886382958591,0.6518939332299823,0.01692093451303057
9.15,0.9368553940991742,0.651844941611783,0.016885791902790142
9.200000000000001,0.936825282969727,0.6517952103041914,0.016850600482364794
9.25,0.9367960620000595,0.6517447542302746,0.016815357013845754
9.3,0.9367677433469728,0.6516935886304938,0.016780058297522646
9.35,0.936740338889083,0.6516417290574827,0.016744701173346203
9.4,0.9367138602217547,0.6515891913706446,0.016709282522419797
9.450000000000001,0.9366883186521504,0.6515359917305724,0.01667379926851888
9.5,0.9366637251943957,0.6514821465932964,0.016638248379637236
9.55,0.9366400905648641,0.6514276727043646,0.0166026268695588
9.600000000000001,0.9366174251775846,0.6513725870927575,0.016566931799453958
9.65,0.9365957391397727,0.6513169070646434,0.016531160279498944
9.700000000000001,0.9365750422474877,0.651260650196979,0.016495309470516983
9.75,0.9365553439814198,0.6512038343309595,0.016459376585639795
9.8,0.9365366535028071,0.6511464775653227,0.0164233588919879
9.850000000000001,0.9365189796494852,0.6510885982495127,0.016387253712368276
9.9,0.9365023309320709,0.6510302149767082,0.016351058426987593
9.950000000000001,0.9364867155302834,0.6509713465767213,0.0163147704751795
10,0.9364721412894008,0.6509120121087697,0.016278387357144174
10.05,0.9364586157168578,0.6508522308541315,0.016241906635698303
10.100000000000001,0.9364461459789829,0.6507920223086847,0.016205325938033734
10.15,0.9364347388978761,0.6507314061753382,0.016168642957482843
10.200000000000001,0.9364244009484323,0.6506704023563608,0.0161318554552887
10.25,0.9364151382555042,0.6506090309456127,0.0160949612623781
10.3,0.9364069565912138,0.6505473122206856,0.016057958281135355
10.350000000000001,0.9363998613724055,0.6504852666349568,0.016020844487174824
10.4,0.9363938576582485,0.6504229148095635,0.015983617931110125
10.450000000000001,0.9363889501479821,0.6503602775253035,0.0159462767403178
10.5,0.9363851431788108,0.6502973757144668,0.015908819120693377
10.55,0.9363824407239445,0.6502342304526048,0.01587124335839758
10.600000000000001,0.9363808463907862,0.650170862950242,0.015833547821590507
10.65,0.9363803634192678,0.6501072945445378,0.015795730962151505
10.700000000000001,0.9363809946803319,0.6500435466909013,0.01575779131738258
10.75,0.9363827426745617,0.6499796409545672,0.015719727511692972
10.8,0.936385609530957,0.6499155990021367,0.015681538258262753
10.850000000000001,0.9363895970058572,0.6498514425930902,0.015643222360683037
10.9,0.9363947064820096,0.6497871935712765,0.015604778714570664
10.950000000000001,0.9364009389677836,0.6497228738563829,0.015566206309154972
11,0.9364082950965301,0.6496585054353957,0.015527504228834426
11.05,0.9364167751260835,0.6495941103540492,0.01548867165470088
11.100000000000001,0.9364263789384092,0.6495297107082765,0.015449707866029139
11.15,0.9364371060393913,0.6494653286356602,0.015410612241729647
11.200000000000001,0.9364489555587633,0.6494009863068922,0.015371384261762048
11.25,0.9364619262501779,0.6493367059172466,0.01533202350850743
11.3,0.9364760164914167,0.6492725096780687,0.015292529668097079
11.350000000000001,0.936491224284738,0.6492084198082873,0.01525290253169559
11.4,0.936507547257361,0.6491444585259525,0.015213141996736223
11.450000000000001,0.9365249826620851,0.6490806480398057,0.015173248068106429
11.5,0.9365435273780442,0.6490170105408845,0.015133220859281463
11.55,0.9365631779115926,0.648953568194166,0.015093060593404149
11.600000000000001,0.9365839303973219,0.648890343130256,0.015052767604308775
11.65,0.9366057805992085,0.6488273574371227,0.015012342337487232
11.700000000000001,0.9366287239118878,0.6487646331518856,0.014971785350995503
11.75,0.936652755362055,0.6487021922526548,0.014931097316298766
11.8,0.9366778696099907,0.6486400566504327,0.014890279019053237
11.850000000000001,0.9367040609512088,0.648578248181076,0.014849331359823149
11.9,0.9367313233182263,0.6485167885973229,0.014808255354731185
11.950000000000001,0.9367596502824506,0.6484556995608896,0.014767052136040763
12,0.9367890350561866,0.6483950026346373,0.014725722952668722
12.05,0.9368194704947574,0.648334719274815,0.014684269170626896
12.100000000000001,0.9368509490987394,0.6482748708233783,0.014642692273391248
12.15,0.9368834630163095,0.6482154785003889,0.01460099386219719
12.200000000000001,0.9369170040457013,0.6481565633964962,0.014559175656259948
12.25,0.9369515636377702,0.6480981464655047,0.014517239492918691
12.3,0.9369871328986635,0.6480402485170275,0.014475187327703481
12.350000000000001,0.937023702592596,0.64798289020923,0.014433021234323882
12.4,0.9370612631447256,0.6479260920416656,0.014390743404578422
12.450000000000001,0.9370998046441311,0.6478698743482041,0.01434835614818399
12.5,0.9371393168468867,0.6478142572900558,0.014305861892524458
12.55,0.9371797891792337,0.6477592608488933,0.01426326318231775
12.600000000000001,0.9372212107408457,0.647704904820072,0.014220562679200894
12.65,0.9372635703081865,0.6476512088059504,0.014177763161232402
12.700000000000001,0.93730685633795785,0.6475981922093133,0.014134867522311646
12.75,0.9373510569706366,0.6475458742268974,0.014091878771514852
12.8,0.9373961600340972,0.6474942738430223,0.014048800032347456
12.850000000000001,0.9374421530473198,0.6474434098233263,0.014005634541912636
12.9,0.9374890232241797,0.6473933007086098,0.013962385649995973
12.950000000000001,0.9375367574773188,0.6473439648087861,0.013919056818066232
13,0.9375853424220952,0.6472954201969409,0.013875651618192335
13.05,0.9376347643806101,0.6472476847035017,0.013832173731876745
13.100000000000001,0.9376850093858101,0.6472007759105178,0.01378862694880549
13.15,0.9377360631856626,0.6471547111460504,0.013745015165515236
13.200000000000001,0.9377879112474021,0.6471095074786753,0.013701342383977761
13.25,0.9378405387618483,0.6470651817120976,0.01365761271010251
13.3,0.9378939306477898,0.6470217503798791,0.013613830352157658
13.350000000000001,0.9379480715564366,0.646979229740279,0.013569999619110552
13.4,0.9380029458759345,0.646937635771208,0.013526124918888235
13.450000000000001,0.9380585377359453,0.6468969841652967,0.013482210756558904
13.5,0.9381148310122864,0.6468572903250781,0.013438261732435343
13.55,0.9381718093316307,0.6468185693582834,0.013394282540101266
13.600000000000001,0.9382294560762646,0.6467808360732542,0.01335027796436178
13.65,0.9382877543889027,0.6467441049744683,0.01330625287911908
13.700000000000001,0.938346687177557,0.6467083902581805,0.013262212245174706
13.75,0.9384062371204601,0.6466737058081781,0.013218161107959736
13.8,0.9384663866710402,0.6466400651916513,0.013174104595194257
13.850000000000001,0.9385271180629464,0.6466074816551789,0.01313004791447772
13.9,0.9385884133151235,0.6465759681208282,0.013085996350811672
13.950000000000001,0.9386502542369339,0.6465455371823692,0.013041955264056573
14,0.9387126224333264,0.6465162011016048,0.012997930086324374
14.05,0.9387754993100499,0.646487971804814,0.012953926319308673
14.100000000000001,0.9388388660789101,0.6464608608793095,0.012909949531554263
14.15,0.938902703763069,0.6464348795701105,0.012866005355668028
14.200000000000001,0.9389669932023857,0.6464100387767272,0.01282209948547313
14.25,0.9390317150587963,0.6463863490500613,0.012778237673108536
14.3,0.9390968498217329,0.6463638205894182,0.012734425726075992
14.350000000000001,0.9391623778135797,0.6463424632396328,0.012690669504236569
14.4,0.9392282791951654,0.6463222864883076,0.012646974916758993
14.450000000000001,0.9392945339712905,0.6463032994631638,0.012603347919022024
14.5,0.9393611219962884,0.6462855109295045,0.012559794509473192
14.55,0.9394280229796197,0.6462689292877891,0.012516320726446184
14.600000000000001,0.9394952164914978,0.6462535625713205,0.012472932644939379
