time,e,omega,d
0,0.942,0.648316538100394,0.02633076200788132
0.05,0.9420227926048922,0.6484805840990266,0.026244823729041744
0.1,0.9420427867865362,0.6486468726957367,0.02616000925906585
0.15000000000000002,0.9420599421994943,0.6488151691719136,0.02607631603730427
0.2,0.9420742267383122,0.6489852651905572,0.025993740678749912
0.25,0.9420856014377954,0.6491568796895868,0.025912277370424272
0.30000000000000004,0.9420940398798275,0.649329777337537,0.02583191953496164
0.35000000000000003,0.9420995180954637,0.6495037103509154,0.025752659208982696
0.4,0.9421020164266015,0.6496784285764785,0.02567448716992798
0.45,0.9421015195487551,0.6498536797336962,0.02559739299016774
0.5,0.9420980165323595,0.6500292097820908,0.025521365083373618
0.55,0.9420915008902162,0.6502047632582715,0.0254463907547133
0.6000000000000001,0.9420819706196841,0.6503800836190522,0.025372456252708772
0.65,0.9420694282387185,0.6505549135877458,0.025299546822626678
0.7000000000000001,0.9420538808156166,0.6507289955033547,0.02522764676110086
0.75,0.9420353399923018,0.6509020716723101,0.02515673947169222
0.8,0.9420138220009906,0.6510738847224322,0.02508680752108983
0.8500000000000001,0.9419893476740906,0.651244177958798,0.025017832695658278
0.9,0.941961942447192,0.6514126957212083,0.024949796058039365
0.9500000000000001,0.9419316363550161,0.6515791837429588,0.024882678003520592
1,0.9418984640201994,0.6517433895106337,0.024816458315889196
1.05,0.9418624646347978,0.6519050626246462,0.024751116222498197
1.1,0.9418236819344072,0.6520639551602622,0.024686630448280383
1.1500000000000001,0.9417821641648035,0.6522198220288531,0.02462297926845696
1.2000000000000002,0.9417379640410224,0.6523724213391269,0.024560140559700013
1.25,0.9416911386988007,0.6525215147580907,0.024498091849521578
1.3,0.941641749638323,0.6526668678715015,0.02443681036367737
1.35,0.9415898626602194,0.6528082505435538,0.02437627307138942
1.4000000000000001,0.9415355477937806,0.6529454372755522,0.024316456728209396
1.4500000000000002,0.9414788792173637,0.6530782075632996,0.02425733791636305
1.5,0.9414199351709799,0.653206346252918,0.024198893082435738
1.55,0.9413587978610649,0.6533296438947995,0.02414109857227945
1.6,0.9412955533574529,0.6534478970953553,0.024083930663043065
1.6500000000000001,0.9412302914825857,0.6535609088661974,0.02402736559224942
1.7000000000000002,0.9411631056930079,0.6536684889703558,0.02397137958386538
1.75,0.941094092953214,0.6537704542650826,0.023915948871333914
1.8,0.941023353395577,0.6538666285649768,0.02386104971499571
1.85,0.9409509908608324,0.6539568444683291,0.023806658424814477
1.9000000000000001,0.9408771119788873,0.6540409420896794,0.023752751371028256
1.9500000000000002,0.9408018263131632,0.6541187699577542,0.02369930499447174
2,0.9407252462151533,0.6541901853861678,0.02364629581606144
2.0500000000000003,0.940647486698879,0.6542550550007838,0.02359370044450424
2.1,0.9405686650918664,0.6543132543970246,0.023541495573079777
2.15,0.9404889009619832,0.6543646688076934,0.023489657982999977
2.2,0.9404083159643644,0.6544091935112369,0.02343816454299228
2.25,0.9403270334993828,0.6544467333397599,0.02338699219854225
2.3000000000000003,0.940245178889133,0.6544772049875901,0.023336117982929148
2.35,0.9401628787300552,0.6545005350307641,0.023285518993817967
2.4000000000000004,0.9400802608635798,0.6545166609787018,0.023235172388502357
2.45,0.9399974541685079,0.6545255315575801,0.023185055375643904
2.5,0.9399145883444706,0.6545271071686504,0.023135145204890267
2.5500000000000003,0.9398317936440957,0.6545213592695138,0.023085419153374167
2.6,0.9397492006831554,0.6545082710089462,0.023035854514550296
2.6500000000000004,0.9396669402238417,0.6544878375246654,0.022986428587572553
2.7,0.9395851429444507,0.6544600651611281,0.022937118665350847
2.75,0.9395039391922965,0.6544249739711199,0.02288790202299567
2.8000000000000003,0.939423458737817,0.6543825951446022,0.022838755912111722
2.85,0.9393438305644147,0.6543329720450166,0.022789657548927887
2.9000000000000004,0.9392651826304572,0.6542761603042385,0.022740584108455857
2.95,0.9391876415941874,0.6542122280800206,0.02269151271867324
3,0.9391113326822531,0.6541412551746683,0.02264242046124799
3.0500000000000003,0.9390363794113284,0.6540633334834006,0.022593284367930302
3.1,0.938962903345273,0.6539785670731222,0.022544081422540885
3.1500000000000004,0.9388910240292897,0.6538870711598694,0.02249478856879117
3.2,0.9388208583403834,0.6537889743574571,0.02244538270994203
3.25,0.938752520719197,0.6536844158400791,0.022395840733762287
3.3000000000000003,0.9386861228112018,0.6535735461499027,0.02234613952017313
3.35,0.938621773245672,0.6534565270339427,0.02229625596016472
3.4000000000000004,0.9385595773557346,0.6533335314013925,0.022246166980722636
3.45,0.9384996372207399,0.653204742292595,0.022195849567414005
3.5,0.938442051352247,0.6530703530211502,0.022145280794840714
3.5500000000000003,0.9383869144746035,0.6529305669863725,0.022094437860838097
3.6,0.9383343176490745,0.652785596572934,0.02204329811281354
3.6500000000000004,0.9382843473303347,0.6526356646997755,0.021991839120455492
3.7,0.9382370860593509,0.6524810022345925,0.021940038690780726
3.75,0.9381926120201834,0.6523218484132681,0.021887874925122612
3.8000000000000003,0.9381509988813239,0.6521584504471835,0.021835326271912352
3.85,0.9381123157025646,0.65199106301725,0.02178237157927646
3.9000000000000004,0.9380766268136235,0.6518199477543911,0.02172899015770055
3.95,0.9380439917224835,0.6516453727826256,0.021675161836423103
4,0.9380144650260231,0.651467612224781,0.021620867025622856
4.05,0.9379880963254356,0.6512869456774417,0.0215660867830962
4.1000000000000005,0.9379649301570371,0.6511036576948388,0.021510802880549504
4.15,0.9379450059323408,0.6509180372598806,0.02145499787217687
4.2,0.937928357888283,0.6507303772563152,0.021398655163422632
4.25,0.9379150150498156,0.6505409739496014,0.02134175907895928
4.3,0.9379050011978095,0.6503501264307618,0.02128429493550049
4.3500000000000005,0.9378983348505037,0.6501581360866243,0.02122624911091295
4.4,0.9378950292539464,0.6499653060833487,0.02116760911130087
4.45,0.9378950923808739,0.6497719407847913,0.021108363645892754
4.5,0.937898526941141,0.6495783452621884,0.02104850268894625
4.55,0.9379053303996286,0.649384824777703,0.020988017544171067
4.6000000000000005,0.9379154950026791,0.6491916842498705,0.020926900910041783
4.65,0.9379290078137597,0.6489992277469846,0.020865146939616903
4.7,0.9379458507576323,0.6488077579822442,0.020802751298108775
4.75,0.9379660006714021,0.6486175758226724,0.020739711216615768
4.800000000000001,0.937989429362718,0.6484289798205068,0.020676025540438313
4.8500000000000005,0.9380161036776583,0.6482422657205117,0.020611694777328236
4.9,0.9380459855738068,0.6480577260045773,0.020546721138094293
4.95,0.9380790320696999,0.6478756493224034,0.02048110862199917
5,0.9381151956612351,0.6476963203331664,0.020414862925514258
5.050000000000001,0.9381544242136601,0.6475200191292556,0.02034799154235912
5.1000000000000005,0.9381966609930037,0.6473470207720613,0.02028050380751664
5.15,0.9382418448359798,0.6471775949369052,0.02021241088798868
5.2,0.9382899102585348,0.6470120055284313,0.020143725791244065
5.25,0.9383407875688914,0.6468505103090919,0.02007446336752374
5.300000000000001,0.9383944029848539,0.646693360541426,0.020004640305873147
5.3500000000000005,0.938450678755242,0.6465408006443191,0.019934275123763227
5.4,0.9385095332851611,0.6463930678633102,0.019863388150242866
5.45,0.9385708812648412,0.6462503919549908,0.019792001502592454
5.5,0.9386346338017914,0.6461129948855014,0.019720139056480183
5.550000000000001,0.9387006987669347,0.6459810910582102,0.019647826303650768
5.6000000000000005,0.938768980236419,0.6458548854174784,0.01957509065672013
5.65,0.9388393794194487,0.6457345749347412,0.019501961010189618
5.7,0.9389117944949922,0.6456203477314068,0.019428467835371728
5.75,0.9389861207391286,0.6455123827900523,0.0193546431291336
5.800000000000001,0.9390622506945838,0.6454108497863027,0.019280520335395943
5.8500000000000005,0.9391400743204757,0.6453159088862772,0.01920613427235039
5.9,0.9392194791433384,0.6452277105559737,0.01913152105440553
5.95,0.9393003504096633,0.645146395384093,0.01905671800903893
6,0.9393825712399069,0.6450720939182724,0.018981763588816737
6.050000000000001,0.9394660227353749,0.6450049262254135,0.01890669730421979
6.1000000000000005,0.9395505842642189,0.6449450024691405,0.01883155955966367
6.15,0.9396361335352246,0.644892422363825,0.018756391596048368
6.2,0.9397225467296547,0.6448472749216151,0.01868123540120904
6.25,0.9398096987680812,0.6448096391608182,0.01860613355109671
6.300000000000001,0.9398974631988383,0.6447795818747892,0.018531129227637045
6.3500000000000005,0.9399857126837114,0.6447571599082368,0.018456265954612645
6.4,0.9400743190239845,0.64474241922375,0.018381587546745647
6.45,0.9401631533188451,0.6447353947850707,0.01830713799730084
6.5,0.9402520861291987,0.644736110282371,0.01823296135508446
6.550000000000001,0.9403409876701988,0.6447445788743948,0.01815910160942632
6.6000000000000005,0.9404297279508693,0.6447608027228282,0.01808560257545408
6.65,0.9405181769314048,0.6447847728422378,0.018012507778866867
6.7,0.9406062046836653,0.6448164699495764,0.01793986036643311
6.75,0.9406936815784839,0.644855862279352,0.017867702911731644
6.800000000000001,0.9407804784508528,0.6449029080621969,0.017796077379519736
6.8500000000000005,0.9408664667503744,0.6449575546593366,0.017725024992425394
6.9,0.940951518711294,0.6450197385582767,0.01765458611932762
6.95,0.9410355075500624,0.6450893852227388,0.01758480014288809
7,0.9411183075560413,0.6451664099237899,0.017515705429835514
7.050000000000001,0.9411997942933287,0.6452507173933006,0.017447339193120706
7.1000000000000005,0.941279844778353,0.6453422017880642,0.01737973738548772
7.15,0.9413583375270549,0.6454407476015356,0.017312934708218635
7.2,0.9414351530385107,0.6455462277245061,0.017246964259127306
7.25,0.9415101736280729,0.6456585059018033,0.01718185773989914
7.300000000000001,0.9415832836989979,0.6457774360162275,0.017117645279897956
7.3500000000000005,0.9416543699170514,0.6459028622010593,0.01705435535841008
7.4,0.9417233214337062,0.6460346188338372,0.0169920147017871
7.45,0.9417900298688722,0.6461725313855099,0.01693064834909088
7.5,0.9418543895664832,0.6463164162317221,0.016870279531551242
7.550000000000001,0.9419162977833971,0.6464660807419932,0.016810929605842243
7.6000000000000005,0.9419756546176316,0.646621324175619,0.016752618159392926
7.65,0.9420323637685437,0.6467819361811468,0.016695362600619136
7.7,0.9420863320362542,0.6469476990083096,0.016639178549483657
7.75,0.9421374697010585,0.6471183870178767,0.016584079668768854
7.800000000000001,0.9421856906899244,0.6472937669102147,0.01653007764109121
7.8500000000000005,0.9422309126994531,0.6474735980662989,0.01647718217817084
7.9,0.942273057333691,0.6476576328451801,0.016425401024607156
7.95,0.9423120502392804,0.6478456168900917,0.01637473996797289
8,0.9423478212370651,0.6480372894439522,0.01632520285529773
8.05,0.9423803044498806,0.6482323836741132,0.01627679161578966
8.1,0.9424094384262963,0.6484306270059063,0.016229506289595817
8.15,0.9424351662600472,0.6486317414646059,0.016183345062384644
8.200000000000001,0.942457435704893,0.6488354440253944,0.016138304305503164
8.25,0.942476199284642,0.6490414469709025,0.01609437862143675
8.3,0.9424914143980736,0.6492494582558789,0.016051560894274255
8.35,0.9425030434153838,0.6494591818662636,0.01600984234300035
8.4,0.9425110537813413,0.6496703182310385,0.01596921258611554
8.450000000000001,0.9425154180957623,0.6498825645796307,0.015929659701284946
8.5,0.9425161141943945,0.6500956153253141,0.015891170291643008
8.55,0.9425131252277349,0.6503091624704115,0.015853729557842824
8.6,0.9425064397291277,0.6505228960017142,0.015817321370778358
8.65,0.9424960516769194,0.6507365042946942,0.01578192834759461
8.700000000000001,0.9424819605492902,0.650949674516634,0.015747531928667683
8.75,0.9424641713697484,0.6511620930234587,0.01571411245449565
8.8,0.9424426947497053,0.651373445786222,0.01568164924866214
8.85,0.94241754691966,0.6515834187995455,0.015650120697640928
8.9,0.9423887497525778,0.6517916984824745,0.01561950432891129
8.950000000000001,0.9423563307820012,0.651997972133595,0.01558977689911474
9,0.9423203232072969,0.6522019283198188,0.015560914468356923
9.05,0.9422807658925577,0.6524032572903259,0.015532892478037021
9.1,0.9422377033577222,0.6526016514103349,0.01550568583100059
9.15,0.9421911857595922,0.6527968055797422,0.015479268966590284
9.200000000000001,0.9421412688636508,0.6529884176578412,0.015453615934391516
9.25,0.9420880140076344,0.6531761888841483,0.015428700464770597
9.3,0.9420314880557641,0.6533598242898909,0.015404496034476236
9.35,0.9419717633422469,0.6535390331387411,0.01538097593408516
9.4,0.941908917606186,0.6537135293464734,0.015358113328055102
9.450000000000001,0.9418430339167555,0.6538830319056761,0.015335881311683563
9.5,0.9417742005885859,0.6540472653117914,0.015314252964105376
9.55,0.9417025110873467,0.6542059599898908,0.015293201396978599
9.600000000000001,0.9416280639254648,0.6543588527221276,0.01527269979867023
9.65,0.9415509625479298,0.6545056870758309,0.015252721473783853
9.700000000000001,0.9414713152123827,0.6546462138182944,0.015233239876808063
9.75,0.9413892348435308,0.6547801913855555,0.01521422864515425
9.8,0.9413048388973777,0.6549073862804834,0.015195661621623356
9.850000000000001,0.9412182492090767,0.655027573496899,0.015177512873839023
9.9,0.94112959182517,0.6551405369620817,0.015159756710471423
9.950000000000001,0.9410389968304851,0.655246069961546,0.01514236769110823
10,0.9409465981631491,0.6553439755676949,0.01512532063142762
10.05,0.9408525334226208,0.6554340670614756,0.015108590604005477
10.100000000000001,0.9407569436718402,0.6555161683406322,0.015092152933979822
10.15,0.9406599732181997,0.6555901143526408,0.01507598319098941
10.200000000000001,0.9405617693943289,0.6556557514995883,0.015060057176615195
10.25,0.9404624823968805,0.6557129383845837,0.015044350913814843
10.3,0.9403622648645533,0.6557615453636734,0.015028840612782958
10.350000000000001,0.940261271749085,0.6558014554225574,0.015013502655590325
10.4,0.9401596600985819,0.6558325647126517,0.014998313573451926
10.450000000000001,0.9400575886500043,0.6558547819086239,0.014983250007285932
10.5,0.9399552179247246,0.6558680312356691,0.014968288701185724
10.55,0.939852709514076,0.6558722498700151,0.014953406444721526
10.600000000000001,0.9397502259812827,0.6558673893203798,0.014938580046950702
10.65,0.9396479305789551,0.6558534157943602,0.01492378630397959
10.700000000000001,0.939545986944631,0.6558303107911382,0.014909001961264332
10.75,0.9394445587915277,0.6557980702806026,0.01489420368430183
10.8,0.9393438096271721,0.6557567055209692,0.014879368021013245
10.850000000000001,0.9392439024564356,0.6557062434279762,0.01486447136921249
10.9,0.9391449995291932,0.655646725529738,0.014849489957323582
10.950000000000001,0.9390472618764978,0.6555782111969756,0.014834399780278855
11,0.9389508491407657,0.6555007742455786,0.014819176615850409
11.05,0.9388559192442799,0.655414504248109,0.014803795984791354
11.100000000000001,0.9387626280758612,0.6553195066033934,0.014788233132311606
11.15,0.9386711291206222,0.6552159028033664,0.01477246300740429
11.200000000000001,0.938581573341378,0.6551038292355142,0.014756460274225927
11.25,0.9384941087939509,0.6549834376842985,0.014740199293966739
11.3,0.9384088803101919,0.6548548953499188,0.014723654122353106
11.350000000000001,0.9383260294737676,0.6547183834663917,0.014706798538102745
11.4,0.9382456936546161,0.6545741000341221,0.014689605996157335
11.450000000000001,0.9381680064750957,0.6544222561314865,0.0146720497171346
11.5,0.9380930973048333,0.6542630768303884,0.014654102683785999
11.55,0.9380210909900659,0.6540968008744211,0.01463573767159038
11.600000000000001,0.9379521076424622,0.6539236801397248,0.014616927289888802
11.65,0.9378862624190376,0.6537439791509261,0.014597644026958853
11.700000000000001,0.9378236653132368,0.6535579745653347,0.014577860301782528
11.75,0.9377644209585192,0.6533659546254751,0.014557548522250142
11.8,0.9377086284449331,0.653168218582123,0.014536681149628961
11.850000000000001,0.9376563811490648,0.6529650760906299,0.014515230769076489
11.9,0.9376077665777041,0.6527568465832592,0.014493170165917318
11.950000000000001,0.9375628662254949,0.6525438586203607,0.014470472407349375
12,0.9375217554467677,0.6523264492232482,0.014447110929194283
12.05,0.9374845033416802,0.6521049631916589,0.014423059627258702
12.100000000000001,0.9374511726596831,0.6518797524315293,0.014398292949712737
12.15,0.9374218197051831,0.6516511751858735,0.014372786005091655
12.200000000000001,0.9373964942746775,0.6514195953719445,0.01434651465747703
12.25,0.9373752396008581,0.6511853818744394,0.014319455630039314
12.3,0.9373580923063835,0.650948907805409,0.01429158661462714
12.350000000000001,0.9373450823756898,0.6507105497913869,0.014262886378796047
12.4,0.9373362331396519,0.6504706872547144,0.014233334874789241
12.450000000000001,0.9373315612725533,0.6502297017073255,0.014202913347170243
12.5,0.9373310768031453,0.6499879760689412,0.014171604437199347
12.55,0.9373347831360542,0.649745893945477,0.01413939229311161
12.600000000000001,0.937342677086599,0.6495038389547192,0.014106262672558706
12.65,0.9373547489247944,0.6492621940783266,0.014072203040222102
12.700000000000001,0.9373709824362222,0.649021340942381,0.014037202674726981
12.75,0.9373913549866186,0.6487816592225988,0.014001252754613771
12.8,0.9374158375977875,0.648543526025418,0.013964346445863285
12.850000000000001,0.9374443950351902,0.6483073152550567,0.013926478988734456
12.9,0.9374769859030326,0.6480733970240674,0.013887647774520496
12.950000000000001,0.937513562748681,0.6478421370740982,0.013847852416921158
13,0.9375540721732384,0.6476138962197545,0.013807094816206057
13.05,0.93759845494756,0.647389029826328,0.013765379213754184
13.100000000000001,0.9376466461415489,0.647167887266199,0.013722712244033012
13.15,0.9376985752549887,0.6469508114247279,0.013679102974417767
13.200000000000001,0.937754166209468,0.6467381380069493,0.013634563005995257
13.25,0.937813337862166,0.6465301955817215,0.013589106324064106
13.3,0.9378760039273314,0.6463273048523607,0.013542749417313753
13.350000000000001,0.9379420730539242,0.6461297781346632,0.013495511316412356
13.4,0.9380114493555114,0.6459379195971227,0.013447413400568145
13.450000000000001,0.9380840315956719,0.6457520231276583,0.01339847988797339
13.5,0.9381597144491344,0.6455723738313193,0.013348737250199241
13.55,0.9382383882450197,0.6453992470132698,0.013298214393671452
13.600000000000001,0.9383199391103724,0.6452329077831879,0.013246942631800046
13.65,0.9384042490692218,0.645073610491779,0.013194955678916657
13.700000000000001,0.9384911964872802,0.6449215991772725,0.013142289428636803
13.75,0.9385806560806322,0.6447771068555496,0.013088981981812048
13.8,0.9386724990391428,0.6446403551124167,0.013035073599229448
13.850000000000001,0.9387665934628588,0.6445115547261439,0.012980606455649392
13.9,0.9388628038784513,0.6443909031194213,0.012925624955454055
13.950000000000001,0.9389609921819353,0.644278586664333,0.01287017516187312
14,0.9390610175216672,0.6441747795620082,0.012814304865995873
14.05,0.939162736467153,0.6440796435827424,0.01275806347925683
14.100000000000001,0.9392660031574307,0.6439933276167449,0.012701501930176329
14.15,0.939370669643462,0.6439159684027066,0.012644672435265993
14.200000000000001,0.9394765859739683,0.6438476898736163,0.012587628422708535
14.25,0.9395836003506183,0.6437886028611249,0.012530424409970079
14.3,0.9396915594459516,0.6437388059760133,0.012473115780139474
14.350000000000001,0.9398003082621451,0.643698382891881,0.012415758817869391
14.4,0.9399096907132712,0.6436674051406165,0.01235841033190067
14.450000000000001,0.9400195496503372,0.6436459309794651,0.012301127588044022
14.5,0.9401297270463194,0.6436340052562426,0.012243968153447216
14.55,0.9402400641973399,0.6436316594543333,0.012186989728237549
14.600000000000001,0.9403504019134115,0.6436389116721444,0.012130249982996682
