time,e,omega,d
0,0.942,0.648316538100394,0.02633076200788132
0.05,0.9420230010432861,0.6484563652848762,0.02624476567992494
0.1,0.9420436237813337,0.6485981110945153,0.026159777628621695
0.15000000000000002,0.9420618336947088,0.6487416185241596,0.026075796647148458
0.2,0.9420776027105889,0.6488867481606069,0.025992820889854232
0.25,0.9420908959601577,0.6490333118206292,0.025910846995026954
0.30000000000000004,0.9421016885282061,0.6491811517415176,0.025829870947221778
0.35000000000000003,0.9421099568168299,0.64933010161765,0.025749887779296255
0.4,0.9421156801076187,0.6494799932773084,0.025670891630106784
0.45,0.9421188405796664,0.6496306568082807,0.025592875774552642
0.5,0.942119423354997,0.6497819207466102,0.025515832648116677
0.55,0.9421174165356091,0.6499336122492956,0.02543975387397713
0.6000000000000001,0.9421128112380422,0.65008555727010775,0.025364630291268467
0.65,0.9421056016249095,0.6502375807370797,0.025290451984466222
0.7000000000000001,0.9420957849333292,0.6503895067315656,0.025217208313759752
0.75,0.9420833615001705,0.650541158668744,0.02514488794627829
0.8,0.9420683347840375,0.6506923594794567,0.025073478888033646
0.8500000000000001,0.9420507113839122,0.6508429317932715,0.025002968516441605
0.9,0.9420305010543816,0.6509926981226749,0.024933343613283476
0.9500000000000001,0.9420077167173777,0.6511414810483046,0.024864590397969403
1,0.9419823744703596,0.6512891034051362,0.024796694560965525
1.05,0.9419544935908677,0.651435388469556,0.024729641297248483
1.1,0.941924096537389,0.6515801601472525,0.024663415339652398
1.1500000000000001,0.9418912089464662,0.651723243161871,0.02459800099197611
1.2000000000000002,0.9418558596259943,0.6518644632443844,0.02453338216172137
1.25,0.941818080544644,0.6520036473231375,0.02446954239233616
1.3,0.9417779068173604,0.652140623714534,0.02440646489484178
1.35,0.9417353766868827,0.6522752223143353,0.024344132578726668
1.4000000000000001,0.9416905315012379,0.6524072747895504,0.02428252808199536
1.4500000000000002,0.9416434156871627,0.6525366147708951,0.024221633800266693
1.5,0.9415940767194101,0.6526630780458017,0.02416143191482147
1.55,0.9415425650859027,0.6527865027519619,0.02410190441950654
1.6,0.9414889342486977,0.6529067295713804,0.024043033146409373
1.6500000000000001,0.9414332406007302,0.6530236019249119,0.02398479979022462
1.7000000000000002,0.9413755434183084,0.6531369661672519,0.023927185931242226
1.75,0.9413159048093375,0.653246671782334,0.023870173056894758
1.8,0.941254389657252,0.6533525715790813,0.023813742581810366
1.85,0.9411910655606446,0.6534545218874399,0.023757875866326564
1.9000000000000001,0.9411260027685795,0.6535523827546056,0.023702554233429315
1.9500000000000002,0.9410592741115927,0.653646018141331,0.023647758984091348
2,0.9409909549283766,0.6537352961181844,0.023593471410993067
2.0500000000000003,0.9409211229881633,0.6538200890615896,0.02353967281061953
2.1,0.9408498584088227,0.6539002738494649,0.023486344493736676
2.15,0.9407772435706987,0.6539757320562298,0.02343346779426016
2.2,0.94070336289347245,0.6540463498350513,0.023381024074225598
2.25,0.9406283031804494,0.6541120190927429,0.023328994735622874
2.3000000000000003,0.9405521530232062,0.654172636624977,0.023277361219598544
2.35,0.9404750028922875,0.6542281046883338,0.023226105009960744
2.4000000000000004,0.9403969450418475,0.6542783312226252,0.023175207635427603
2.45,0.9403180733848984,0.6543232300046631,0.023124650669298412
2.5,0.9402384833785485,0.6543627208286947,0.023074415728332437
2.5500000000000003,0.9401582719057845,0.6543967296838576,0.02302448447044933
2.6,0.9400775371537163,0.6544251889272756,0.02297483859138362
2.6500000000000004,0.9399963784883688,0.6544480374521631,0.022925459820411817
2.7,0.9399148963261901,0.6544652208503241,0.022876329915266853
2.75,0.9398331920024403,0.6544766915683753,0.02282743065636547
2.8000000000000003,0.9397513676366446,0.6544824090569928,0.022778743840480658
2.85,0.9396695259953067,0.6544823399124717,0.022730251273997443
2.9000000000000004,0.9395877703520945,0.6544764580098618,0.022681934765895972
2.95,0.9395062043503392,0.6544647448365328,0.022633776120546564
3,0.9394249318402527,0.6544471890861484,0.02258575713129768
3.0500000000000003,0.9393440567491861,0.6544237870709225,0.022537859572537997
3.1,0.9392636829389349,0.6543945429158166,0.022490065193301732
3.1500000000000004,0.9391839140685481,0.6543594680503231,0.022442355712835732
3.2,0.9391048534023828,0.6543185828434406,0.022394712808977577
3.25,0.9390266036858563,0.654271914934086,0.022347118122303188
3.3000000000000003,0.9389492669960126,0.6542194999155021,0.02229955324781894
3.35,0.9388729445859476,0.6541613814096314,0.022251999732851656
3.4000000000000004,0.9387977367026357,0.6540976112492162,0.02220443907495641
3.45,0.938723742512052,0.6540282489158038,0.02215685272555245
3.5,0.9386510599110651,0.6539533618521355,0.022109222088766735
3.5500000000000003,0.9385797853663436,0.6538730255347267,0.02206152852434609
3.6,0.9385100138823418,0.6537873228208846,0.02201375335547454
3.6500000000000004,0.9384418385448776,0.6536963454635922,0.021965877867958047
3.7,0.9383753507045851,0.6536001922651267,0.02191788333062699
3.75,0.938310639727539,0.6534989696392968,0.021869751000587842
3.8000000000000003,0.9382477928464834,0.6533927915382456,0.021821462136655877
3.85,0.9381868949705966,0.6532817794636989,0.021772998016504994
3.9000000000000004,0.9381280287203194,0.6531660618088152,0.02172433995237792
3.95,0.9380712742101205,0.6530457739964951,0.021675469311254712
4,0.9380167088968248,0.6529210583968038,0.021626367537383347
4.05,0.9379644076682503,0.652792063616243,0.02157701616975063
4.1000000000000005,0.9379144421815342,0.6526589456259271,0.021527396888806935
4.15,0.9378668813481911,0.6525218660293852,0.021477491526760477
4.2,0.9378217910208321,0.6523809924021604,0.0214272821039288
4.25,0.9377792338778597,0.6522364980777844,0.02137675086271214
4.3,0.9377392693539511,0.6520885618505416,0.02132588030127432
4.3500000000000005,0.9377019535484297,0.6519373676768871,0.021274653213717406
4.4,0.9376673391541056,0.651783104410649,0.02122305272627725
4.45,0.937635475386425,0.6516259655149804,0.0211710623372997
4.5,0.9376064079146361,0.6514661487546403,0.0211186659602298
4.55,0.9375801788028508,0.6513038558913278,0.021065847966532984
4.6000000000000005,0.9375568264564728,0.6511392923693992,0.021012593230318413
4.65,0.9375363855749864,0.6509726670003867,0.020958887173336573
4.7,0.9375188871127198,0.650804191650473,0.020904715809807496
4.75,0.9375043582417876,0.65063408090401,0.020850065794760154
4.800000000000001,0.9374928223242981,0.6504625517405642,0.02079492447040898
4.8500000000000005,0.9374842988905934,0.650289823218174,0.02073927991162578
4.9,0.9374788036207874,0.6501161161144957,0.02068312097727044
4.95,0.9374763483363445,0.649941652621784,0.02062643735336194
5,0.9374769409955821,0.649766656023929,0.020569219598615702
5.050000000000001,0.9374805856940048,0.6495913503602692,0.020511459191307566
5.1000000000000005,0.9374872826713416,0.6494159601045687,0.020453148573212662
5.15,0.9374970283240474,0.6492407098429981,0.020394281192887304
5.2,0.9375098152226218,0.6490658239589507,0.02033485154710131
5.25,0.9375256321342086,0.6488915263299877,0.02027485521946393
5.300000000000001,0.937544464050666,0.6487180400075676,0.020214288920157284
5.3500000000000005,0.9375662922211572,0.6485455869185353,0.020153150521234734
5.4,0.9375910941893854,0.6483743875688707,0.020091439090083464
5.45,0.9376188438353394,0.6482046607529153,0.020029154920441303
5.5,0.9376495114213297,0.648036623268899,0.01996629956071055
5.550000000000001,0.9376830636421315,0.6478704896411045,0.01990287583939416
5.6000000000000005,0.9377194636790516,0.6477064718489309,0.019838887887490535
5.65,0.9377586712557617,0.6475447790715686,0.019774341157119256
5.7,0.9378006427049911,0.6473856174071468,0.01970924243916041
5.75,0.9378453310294294,0.6472291896428971,0.019643599874173332
5.800000000000001,0.9378926859687177,0.6470756950170876,0.019577422961025357
5.8500000000000005,0.9379426540721847,0.6469253289767262,0.019510722562781215
5.9,0.9379951787723138,0.6467782829535967,0.019443510907964492
5.95,0.9380502004611245,0.6466347441466191,0.01937580158816144
6,0.9381076565691583,0.6464948953118882,0.019307609551774883
6.050000000000001,0.9381674816468205,0.6463589145606279,0.019238951093876844
6.1000000000000005,0.9382296074479314,0.6462269751651117,0.019169843842140055
6.15,0.9382939630153407,0.6460992453725254,0.01910030673884296
6.2,0.9383604747684674,0.645975888226754,0.019030360018959396
6.25,0.9384290665926317,0.6458570613980608,0.018960025184359526
6.300000000000001,0.938499659930054,0.6457429170206128,0.01888932497416386
6.3500000000000005,0.9385721738724009,0.6456336015378067,0.018818283331307504
6.4,0.938646525254765,0.6455292555553334,0.018746925365386403
6.45,0.9387226287509722,0.6454300137019223,0.01867527731187204
6.5,0.9388003969701172,0.6453360044976983,0.018603366487794978
6.550000000000001,0.9388797405542098,0.6452473502299285,0.01853122124407869
6.6000000000000005,0.93896056827695,0.6451641668367926,0.01845887091433591
6.65,0.9390427871433623,0.6450865637979046,0.018386345760812387
6.7,0.9391263024903521,0.6450146440323202,0.018313676917256584
6.75,0.9392110180880988,0.6449485038039644,0.01824089632887845
6.800000000000001,0.9392968362421977,0.6448882326342256,0.018168036689660456
6.8500000000000005,0.9393836578964815,0.6448339132215907,0.018095131377225925
6.9,0.9394713827364782,0.6447856213683579,0.018022214385412648
6.95,0.939559909293454,0.6447434259143408,0.01794932025476502
7,0.9396491350489873,0.6447073886775008,0.017876484001154703
7.050000000000001,0.9397389565400356,0.6446775644014552,0.01780374104274698
7.1000000000000005,0.9398292694644481,0.6446540007098034,0.01773112712553587
7.15,0.9399199687868879,0.6446367380672261,0.01765867824767671
7.2,0.9400109488451265,0.64462580974731,0.017586430582849276
7.25,0.9401021034566773,0.6446212418070556,0.017514420402884943
7.300000000000001,0.9401933260257315,0.6446230530680317,0.017442683999913944
7.3500000000000005,0.9402845096503679,0.6446312551041415,0.0173712576082445
7.4,0.9403755472300052,0.6446458522359693,0.0173001773262442
7.45,0.9404663315730629,0.6446668415316783,0.01722947903845096
7.5,0.9405567555048031,0.6446942128144365,0.017159198338167262
7.550000000000001,0.9406467119753176,0.6447279486763446,0.017089370450769945
7.6000000000000005,0.940736094167634,0.6447680244988485,0.01702003015797742
7.65,0.9408247956059014,0.6448144084796141,0.01695121172330976
7.7,0.9409127102636238,0.6448670616658487,0.016882948818972933
7.75,0.9409997326719041,0.6449259379940478,0.01681527445439358
7.800000000000001,0.9410857580276583,0.6449909843361546,0.016748220906624915
7.8500000000000005,0.941170682301759,0.645062140552108,0.01668181965283799
7.9,0.9412544023470649,0.6451393395487636,0.016616101305104988
7.95,0.9413368160062858,0.6452225073451644,0.016551095547673235
8,0.9414178222196355,0.6453115631441365,0.016486831076919617
8.05,0.9414973211322166,0.645406419410183,0.016423335544165616
8.1,0.9415752142010797,0.6455069819536429,0.01636063550152281
8.15,0.9416514043018941,0.6456131500210797,0.01629875635092769
8.200000000000001,0.9417257958351662,0.6457248163918556,0.016237722296513296
8.25,0.9417982948319333,0.6458418674808454,0.016177556300452613
8.3,0.9418688090588604,0.6459641834472297,0.01611828004239651
8.35,0.9419372481226598,0.6460916383093099,0.016059913882615257
8.4,0.9420035235737535,0.6462241000652668,0.016002476828939377
8.450000000000001,0.9420675490090886,0.6463614308197876,0.015945986507581146
8.5,0.9421292401740161,0.646503486916467,0.0158904591379051
8.55,0.9421885150631387,0.6466501190758829,0.01583590951119722
8.6,0.9422452940200284,0.6468011725392369,0.0157823509734725
8.65,0.9422994998357075,0.6469564872174337,0.015729795412344153
8.700000000000001,0.9423510578457919,0.6471158978454704,0.015678253247958657
8.75,0.9423998960261833,0.6472792341419882,0.01562773342798981
8.8,0.9424459450871993,0.6474463209738321,0.015578243426668175
8.85,0.9424891385660228,0.6476169785254503,0.015529789247806788
8.9,0.9425294129173554,0.647791022472955,0.015482375431769098
8.950000000000001,0.9425667076021511,0.64796826416265485,0.01543600506631018
9,0.9426009651743097,0.6481485107938618,0.015390679801207454
9.05,0.9426321313652036,0.6483315656057601,0.015346399866582938
9.1,0.9426601551659141,0.6485172280681222,0.01530316409480504
9.15,0.9426849889070494,0.6487052940756453,0.015260969945844399
9.200000000000001,0.9427065883360187,0.648895556145677,0.015219813535945361
9.25,0.9427249126916327,0.6490878036190922,0.015179689669462313
9.3,0.9427399247759071,0.6492818228640825,0.015140591873698194
9.35,0.9427515910229404,0.6494773974826139,0.015102512436571775
9.4,0.9427598815647412,0.6496743085193111,0.015065442446929695
9.450000000000001,0.9427647702938826,0.6498723346725295,0.015029371837309928
9.5,0.9427662349228576,0.6500712525073769,0.01499428942895474
9.55,0.9427642570400198,0.6502708366704578,0.01496018297886329
9.600000000000001,0.9427588221619877,0.6504708601061184,0.014927039228667345
9.65,0.9427499197823982,0.6506710942739845,0.01489484395510759
9.700000000000001,0.942737543416894,0.6508713093675971,0.014863582021883162
9.75,0.9427216906442372,0.6510712745339688,0.014833237432643089
9.8,0.9427023631434375,0.651270758093901,0.014803793384885383
9.850000000000001,0.9426795667267928,0.651469527762925,0.014775232324527736
9.9,0.9426533113687372,0.651667350872754,0.014747536000912722
9.950000000000001,0.9426236112303986,0.6518639945931591,0.014720685522010762
10,0.9425904846797669,0.652059226154211,0.014694661409585108
10.05,0.9425539543073802,0.6522528130688573,0.014669443654085242
10.100000000000001,0.942514046937434,0.6524445233558402,0.014645011769038404
10.15,0.942470793634226,0.6526341257629883,0.014621344844712798
10.200000000000001,0.9424242297038453,0.6528213899909519,0.01459842160083127
10.25,0.9423743946910211,0.6530060869174841,0.014576220438120048
10.3,0.9423213323710445,0.6531879888224016,0.014554719488484025
10.350000000000001,0.9422650907366781,0.6533668696133943,0.014533896663607703
10.4,0.9422057219799704,0.6535425050528786,0.014513729701789416
10.450000000000001,0.9421432824688915,0.653714672986124,0.014494196212825617
10.5,0.9420778327187056,0.6538831535709008,0.014475273720772229
10.55,0.9420094373579998,0.6540477295089254,0.014456939704420439
10.600000000000001,0.9419381650892815,0.6542081862793907,0.014439171635336128
10.65,0.9418640886440659,0.6543643123748856,0.01442194701332373
10.700000000000001,0.9417872847323664,0.6545158995400109,0.014405243399188349
10.75,0.9417078339865054,0.6546627430130012,0.014389038444682981
10.8,0.9416258208991629,0.6548046417706487,0.01437330991954155
10.850000000000001,0.9415413337555805,0.6549413987768155,0.014358035735512857
10.9,0.9414544645598376,0.6550728212347915,0.01434319396732535
10.950000000000001,0.9413653089551226,0.655198720843721,0.014328762870527966
11,0.9412739661379214,0.6553189140592802,0.014314720896168124
11.05,0.941180538766051,0.6554332223587306,0.014301046702284194
11.100000000000001,0.9410851328604687,0.6555414725104124,0.014287719162206461
11.15,0.9409878577007985,0.6556434968476681,0.014274717369677637
11.200000000000001,0.9408888257145182,0.6557391335471003,0.01426202064082142
11.25,0.9407881523597648,0.6558282269109794,0.014249608513005402
11.3,0.9406859560017248,0.6559106276535107,0.014237460740662632
11.350000000000001,0.9405823577825918,0.6559861931905652,0.014225557288154517
11.4,0.9404774814850871,0.6560547879323586,0.014213878319776158
11.450000000000001,0.9403714533895561,0.6561162835784429,0.014202404187023879
11.5,0.9402644021246769,0.656170559414247,0.014191115413263507
11.55,0.9401564585118372,0.6562175026082764,0.014179992675956333
11.600000000000001,0.9400477554032516,0.6562570085089302,0.014169016786618362
11.65,0.9399384275138967,0.6562889809398647,0.014158168668684086
11.700000000000001,0.9398286112476384,0.6563133324925123,0.014147429333592079
11.75,0.9397184445172652,0.6563299848144595,0.014136779855140141
11.8,0.9396080665589531,0.6563388688921318,0.014126201342481659
11.850000000000001,0.939497617741385,0.6563399253262043,0.014115674912020216
11.9,0.9393872393681492,0.656333104599728,0.014105181658219624
11.950000000000001,0.9392770734779702,0.6563183673330167,0.014094702624260214
12,0.9391672626447539,0.6562956845190066,0.014084218773041227
12.05,0.9390579497605449,0.6562650377629327,0.01407371095631289
12.100000000000001,0.9389492778246044,0.6562264194914073,0.014063159885697157
12.15,0.9388413897159276,0.6561798334581437,0.014052546098957522
12.200000000000001,0.9387344279919096,0.656125294143923,0.014041849945583836
12.25,0.9386285346639102,0.6560628273702777,0.014031051552097128
12.3,0.938523850972309,0.6559924705805846,0.014020130795644955
12.350000000000001,0.9384205172301812,0.6559142720713118,0.014009067300287812
12.4,0.9383186724013959,0.6558282933997317,0.013997840362966444
12.450000000000001,0.9382184540628329,0.6557346068693227,0.013986428997357464
12.5,0.9381199981269479,0.6556332965130179,0.013974811895068487
12.55,0.9380234386077717,0.6555244581569041,0.013962967413468445
12.600000000000001,0.9379289073392583,0.6554081996294744,0.013950873560859316
12.65,0.9378365339150833,0.6552846398802281,0.013938508016845888
12.700000000000001,0.9377464453880582,0.6551539093662375,0.013925848117338992
12.75,0.9376587660302789,0.6550161500800378,0.013912870854830527
12.8,0.9375736173450561,0.6548715145290507,0.013899552912256202
12.850000000000001,0.9374911172737306,0.6547201677997755,0.013885870610158073
12.9,0.9374113806265673,0.654562284815388,0.013871800002380738
12.950000000000001,0.9373345186760387,0.6543980510366109,0.013857316868480818
13,0.9372606389524696,0.6542276622432874,0.013842396740218307
13.05,0.9371898450893059,0.6540513241500254,0.013827014937381608
13.100000000000001,0.9371222366585122,0.6538692520660557,0.013811146605803161
13.15,0.9370579090139022,0.653681670531928,0.01379476676033197
13.200000000000001,0.936996953143352,0.6534888129333818,0.013777850332571307
13.25,0.9369394555302353,0.6532909210939748,0.013760372223256604
13.3,0.936885498024359,0.6530882448484409,0.013742307359116891
13.350000000000001,0.9368351577226506,0.6528810415987252,0.013723630754024791
13.4,0.9367885068597934,0.6526695758547092,0.013704317574206619
13.450000000000001,0.9367456127089628,0.6524541187616636,0.013684343207252385
13.5,0.9367065374927598,0.6522349476164773,0.013663683334635
13.55,0.9366713383067646,0.6520123453909201,0.013642314004947306
13.600000000000001,0.9366400670436945,0.6517866001858984,0.013620211719504472
13.65,0.9366127703413287,0.6515580047608417,0.013597353507853127
13.700000000000001,0.9365894895349999,0.6513268560316531,0.013573717010012344
13.75,0.936570260616677,0.6510934545446811,0.01354928056373222
13.8,0.936555114207317,0.6508581039698721,0.013524023290015291
13.850000000000001,0.9365440755383778,0.6506211105894915,0.013497925180579618
13.9,0.9365371644422977,0.6503827827954732,0.013470967184679526
13.950000000000001,0.9365343953533436,0.6501434306038845,0.01344313129389888
14,0.9365357773154721,0.6499033651408431,0.013414400632303832
14.05,0.9365413140003028,0.6496628981618219,0.013384759541064765
14.100000000000001,0.9365510037319599,0.6494223415895067,0.013354193659899864
14.15,0.936564839523275,0.6491820070004001,0.01332269001730242
14.200000000000001,0.9365828091159494,0.6489422051999958,0.013290237104435812
14.25,0.9366048950285998,0.648703245780638,0.01325682495147767
14.3,0.9366310746130506,0.6484654366689302,0.013222445204654728
14.350000000000001,0.9366613201164489,0.64822908370396215,0.01318709119624842
14.4,0.9366955987501914,0.6479944902224632,0.013150758011595693
14.450000000000001,0.9367338727635143,0.647761956660122,0.013113442551350883
14.5,0.9367760995213433,0.647531780176763,0.013075143587170105
14.55,0.9368222315914562,0.6473042542658418,0.013035861817206906
14.600000000000001,0.9368722168332515,0.6470796683988763,0.012995599912685528
