time,e,omega,d
0,0.942,0.6482532304803152,0.02633076200788132
0.05,0.9420192758331299,0.6484266622183842,0.026245800978471436
0.1,0.942035606400385,0.6486017783065098,0.02616198882566633
0.15000000000000002,0.9420489606300331,0.6487783230014111,0.026079319339422157
0.2,0.9420593148495635,0.648956070244785,0.02599778595168966
0.25,0.9420666417038347,0.6491347162112058,0.025917378622727638
0.30000000000000004,0.942070924823655,0.6493140081950632,0.025838087331923023
0.35000000000000003,0.9420721510231908,0.6494936811761529,0.025759900566629468
0.4,0.9420703117626746,0.64967346888403,0.02568280561011116
0.45,0.9420654031579205,0.6498531040864092,0.02560678860454514
0.5,0.9420574260205394,0.650032319023501,0.025531834607740275
0.55,0.9420463858847873,0.6502108458077236,0.025457927652495913
0.6000000000000001,0.9420322930275485,0.6503884168297499,0.02538505080701388
0.65,0.9420151624806989,0.6505647651673503,0.02531318623614992
0.7000000000000001,0.941995014035701,0.6507396249964795,0.02524231526317185
0.75,0.94197187224027,0.6509127320039598,0.025172418431700105
0.8,0.9419457663869721,0.651083823801102,0.0251034755675106
0.8500000000000001,0.9419167304936286,0.6512526403375994,0.025035465839886445
0.9,0.9418848032754182,0.651418924315012,0.024968367822213854
0.9500000000000001,0.9418500281085899,0.6515824215991467,0.024902159551528004
1,0.9418124529857149,0.6517428816306325,0.024836818586727066
1.05,0.9417721304624286,0.6519000578329781,0.024772322065186734
1.1,0.9417291175956325,0.6520537080173914,0.024708646757523354
1.1500000000000001,0.9416834758731503,0.6522035947836351,0.024645769120271215
1.2000000000000002,0.9416352711348501,0.6523494859161865,0.02458366534625819
1.25,0.9415845734852718,0.6524911547749643,0.024522311412484465
1.3,0.9415314571978193,0.6526283806798849,0.024461683125330026
1.35,0.9414760006105994,0.6527609492885011,0.024401756162939447
1.4000000000000001,0.9414182860140186,0.6528886529659851,0.024342506114655618
1.4500000000000002,0.941358399530264,0.653011291146708,0.024283908517398384
1.5,0.9412964309848286,0.6531286706866735,0.02422593888890873
1.55,0.9412324737702557,0.6532406062060637,0.024168572757804357
1.6,0.9411666244932682,0.6533469199044503,0.02411178568720225
1.6500000000000001,0.9410989835152572,0.6534474435070516,0.024055553305665195
1.7000000000000002,0.9410296540106289,0.6535420168270053,0.023999851323197798
1.75,0.9409587421073439,0.6536304886925576,0.023944655547933638
1.8,0.9408863567327906,0.6537127172857905,0.023889941901705267
1.85,0.9408126094140461,0.6537885703612935,0.023835686430683848
1.9000000000000001,0.9407376140936686,0.6538579254974299,0.02378186531381053
1.9500000000000002,0.9406614869404495,0.6539206703337339,0.023728454868432492
2,0.940584346155101,0.6539767027920724,0.023675431553373996
2.0500000000000003,0.940506311771194,0.6540259312808518,0.02362277196964101
2.1,0.9404275054891194,0.6540682751847868,0.02357045286316776
2.15,0.9403480503653483,0.6541036642833239,0.02351845111172575
2.2,0.9402680706711171,0.6541320393439782,0.02346674372472943
2.25,0.9401876917010212,0.6541533524007498,0.023415307838928673
2.3000000000000003,0.9401070394896819,0.6541675660174012,0.02336412070082545
2.35,0.9400262407544583,0.6541746556385406,0.02331315968187977
2.4000000000000004,0.939945422468757,0.6541746071800854,0.02326240224544861
2.45,0.9398647117352132,0.6541674180039063,0.023211825943886235
2.5,0.9397842355647306,0.6541530970164406,0.023161408410500402
2.5500000000000003,0.9397041206323968,0.6541316649244076,0.02311112735112994
2.6,0.9396244930896517,0.6541031534202884,0.023060960530611175
2.6500000000000004,0.939545478333127,0.6540676056243578,0.023010885766049725
2.7,0.939467200782065,0.6540250761849286,0.02296088092081409
2.75,0.9393897837449546,0.6539756303392273,0.022910923894563402
2.8000000000000003,0.939313348969657,0.6539193460860784,0.022860992626782633
2.85,0.9392380166646421,0.653856311540402,0.022811065088280794
2.9000000000000004,0.9391639052214966,0.6537866257432835,0.0227611192807527
2.95,0.93909113100047,0.6537103985626018,0.02271113323938384
3,0.93901980806974,0.6536277507213578,0.022661085038448096
3.0500000000000003,0.9389500481764823,0.6535388128636019,0.022610952795228213
3.1,0.9388819604680878,0.6534437257692124,0.022560714680026177
3.1500000000000004,0.9388156512791034,0.6533426402535267,0.02251034892930126
3.2,0.9387512241734512,0.6532357161629677,0.02245983385499353
3.25,0.9386887791815163,0.6531231240339938,0.022409147879032292
3.3000000000000003,0.938628413267496,0.653005042614102,0.02235826954116603
3.35,0.9385702199507698,0.6528816593844547,0.02230717752692215
3.4000000000000004,0.9385142891358619,0.6527531702808452,0.022255850696407915
3.45,0.9384607069899094,0.6526197792860335,0.022204268115423198
3.5,0.9384095558109189,0.6524816980679327,0.022152409089566588
3.5500000000000003,0.9383609139034332,0.6523391456064292,0.02210025320149836
3.6,0.9383148554624766,0.6521923478085447,0.022047780351109596
3.6500000000000004,0.9382714504659395,0.6520415371127187,0.02199497079845738
3.7,0.9382307645785573,0.6518869520967308,0.021941805207821557
3.75,0.938192859052287,0.6517288370259888,0.0218882646999256
3.8000000000000003,0.93815779065213,0.6515674414599655,0.021834330898789434
3.85,0.9381256115840717,0.6514030198291558,0.021779985983410993
3.9000000000000004,0.938096369427379,0.6512358309879805,0.021725212743150247
3.95,0.9380701070797329,0.6510661377784622,0.021669994632804224
4,0.9380468627102051,0.6508942065849439,0.021614315829587876
4.05,0.93802666972072,0.6507203068911743,0.021558161290280178
4.1000000000000005,0.9380095567177988,0.6505447108460487,0.0215015168077386
4.15,0.937995547488939,0.6503676927988516,0.021444369071458864
4.2,0.9379846609901543,0.6501895288572341,0.02138670572509376
4.25,0.9379769113409494,0.6500104964563028,0.02132851542232476
4.3,0.9379723078267201,0.6498308738731657,0.021269787889284412
4.3500000000000005,0.9379708549103124,0.6496509398172808,0.021210513976226936
4.4,0.9379725522500244,0.6494709729982018,0.021150685711356795
4.45,0.9379773947248973,0.64929125167738,0.021090296355472313
4.5,0.9379853724676624,0.6491120532422265,0.021029340452106443
4.55,0.9379964709049119,0.6489336537803548,0.02096781387587744
4.6000000000000005,0.9380106708030795,0.6487563276641409,0.02090571387771277
4.65,0.9380279483204532,0.6485803471525992,0.020843039125639194
4.7,0.9380482750676546,0.6484059819714578,0.020779789745617987
4.75,0.9380716181724762,0.6482334989230658,0.020715967356070928
4.800000000000001,0.9380979402308702,0.6480631613930661,0.02065157514187712
4.8500000000000005,0.9381271996863281,0.6478952292203504,0.020586617773992164
4.9,0.938159350727756,0.6477299581934695,0.020521101496822562
4.95,0.9381943433151146,0.6475675996440824,0.02045503416685743
5,0.9382321233319673,0.6474084001356727,0.020388425244935258
5.050000000000001,0.9382726326816796,0.647252601123955,0.020321285804290497
5.1000000000000005,0.9383158093877175,0.6471004386269488,0.020253628533499938
5.15,0.9383615876978676,0.6469521429054476,0.020185467734205608
5.2,0.9384098981922985,0.6468079381541634,0.0201168193134817
5.25,0.9384606678952296,0.646668042203712,0.020047700770782446
5.300000000000001,0.9385138203899959,0.6465326662335897,0.019978131179429533
5.3500000000000005,0.9385692759373034,0.6464020144962697,0.019908131162623938
5.4,0.9386269517924912,0.6462762845113004,0.01983772277035411
5.45,0.9386867616830877,0.6461556653672982,0.019766929751276235
5.5,0.9387486166657062,0.6460403390329005,0.01969577716842521
5.550000000000001,0.9388124249713293,0.6459304795645752,0.01962429148603927
5.6000000000000005,0.938878092119848,0.6458262528368007,0.019552500527675428
5.65,0.9389455210742246,0.6457278163786576,0.019480433410397905
5.7,0.9390146123764834,0.6456353191794061,0.019408120484107474
5.75,0.9390852642851479,0.6455489015041569,0.019335593266295522
5.800000000000001,0.9391573729143406,0.6454686947211274,0.019262884372351474
5.8500000000000005,0.9392308323745012,0.6453948211405539,0.019190027441628277
5.9,0.9393055348686321,0.6453273936036311,0.019117057082934298
5.95,0.9393813709583752,0.6452665159911057,0.019044008730897493
6,0.9394582296297384,0.6452122827157508,0.01897091860041112
6.050000000000001,0.9395359984137603,0.6451647784799112,0.01889782361160344
6.1000000000000005,0.93961456363603,0.6451240789048702,0.01882476124956242
6.15,0.9396938103047665,0.6450902484901894,0.018751769593223076
6.2,0.9397736225691191,0.6450633426680423,0.018678887074730414
6.25,0.9398538837401832,0.6450434069417542,0.018606152441451525
6.300000000000001,0.9399344764374497,0.6450304767667764,0.01853360465989403
6.3500000000000005,0.940015282740018,0.6450245772858196,0.01846128281120948
6.4,0.9400961843681904,0.6450257239958177,0.01838922598745687
6.45,0.9401770628117404,0.6450339223092597,0.018317473195180872
6.5,0.940257799475748,0.6450491674050893,0.01824606325639425
6.550000000000001,0.940338275833046,0.6450714449970885,0.018175034725782864
6.6000000000000005,0.9404183735909454,0.6451007293145229,0.01810442573489404
6.65,0.9404979748537003,0.6451369853692305,0.018034273945676232
6.7,0.9405769622598164,0.6451801681493199,0.0179646164394631
6.75,0.9406552191402933,0.6452302226053925,0.017895489619231486
6.800000000000001,0.9407326297021837,0.6452870835013701,0.017826929094176408
6.8500000000000005,0.9408090791159633,0.6453506761735561,0.017758969647925636
6.9,0.9408844537022379,0.6454209162010531,0.017691645119338035
6.95,0.9409586410968739,0.6454977093644146,0.01762498830853796
7,0.9410315302979949,0.6455809524824678,0.017559030977798616
7.050000000000001,0.9411030121091901,0.6456705316064539,0.01749380355347607
7.1000000000000005,0.9411729789923469,0.6457663242917742,0.017429335290828463
7.15,0.9412413253176292,0.6458681989274494,0.01736565412228024
7.2,0.941307947525669,0.6459760148354189,0.017302786586556925
7.25,0.9413727443345207,0.6460896222595816,0.017240757735856833
7.300000000000001,0.941435616725767,0.646208863152175,0.017179591186493034
7.3500000000000005,0.9414964681805132,0.6463335709947488,0.017119309011346572
7.4,0.9415552048541385,0.6464635708792332,0.017059931677888433
7.45,0.9416117355115684,0.6465986803412572,0.017001478133415657
7.5,0.9416659722263646,0.646738707962188,0.016943965447908497
7.550000000000001,0.9417178299218728,0.6468834554320064,0.0168874091437783
7.6000000000000005,0.9417672267198267,0.6470327170948297,0.016831823046115774
7.65,0.9418140840933008,0.64718628016618,0.016777219257652017
7.7,0.9418583269794831,0.6473439250567069,0.016723608161324205
7.75,0.9418998839056368,0.6475054256568852,0.016670998418221582
7.800000000000001,0.941938687112272,0.647670549631598,0.016619396970962
7.8500000000000005,0.9419746726726655,0.6478390587253741,0.01656880905259872
7.9,0.9420077806084545,0.6480107090782383,0.0165192382009469
7.95,0.942037955001057,0.6481852515518518,0.01647068627817779
8,0.9420651440986544,0.648362432065669,0.016423153495511933
8.05,0.9420893004184592,0.6485419919428091,0.016376638442817826
8.1,0.9421103808439966,0.6487236682653053,0.016331138122899526
8.15,0.9421283467171264,0.6489071942383732,0.016286647990234628
8.200000000000001,0.9421431639218397,0.6490922995509879,0.01624316199244759
8.25,0.942154802972948,0.6492787107914649,0.016200672621143292
8.3,0.9421632390840337,0.6494661518102524,0.016159170959417275
8.35,0.942168452234836,0.6496543441110333,0.016118646735003735
8.4,0.9421704272357776,0.6498430072655723,0.01607908837838119
8.450000000000001,0.942169153782039,0.6500318593206852,0.016040483081879286
8.5,0.9421646265012755,0.6502206172160104,0.016002816861806865
8.55,0.942156844993945,0.6504089972020963,0.015966074621686095
8.6,0.9421458138643812,0.6505967152536092,0.015930240215766635
8.65,0.9421315427477495,0.6507834875143175,0.015895296517798505
8.700000000000001,0.9421140463260975,0.6509690307243589,0.01586122548755448
8.75,0.9420933443367462,0.6511530626401889,0.01582800823620098
8.8,0.9420694615732376,0.6513353025116219,0.015795625100368204
8.85,0.9420424278757514,0.6515154714890523,0.015764055704943682
8.9,0.9420122781141497,0.6516932930566833,0.01573327902906384
8.950000000000001,0.941979052162429,0.651868493485268,0.015703273474339686
9,0.9419427948635907,0.6520408022672608,0.015674016929116533
9.05,0.9419035559851175,0.6522099525559308,0.015645486831936666
9.1,0.9418613901664493,0.6523756815976077,0.015617660232566173
9.15,0.941816356857664,0.6525377311504049,0.015590513849157564
9.200000000000001,0.9417685202465828,0.652695847928888,0.015564024127345422
9.25,0.9417179491784726,0.6528497840215808,0.015538167293385136
9.3,0.941664717066336,0.6529992973077468,0.015512919405016874
9.35,0.9416089017920111,0.6531441518687332,0.0154882563993319
9.4,0.941550585598241,0.6532841183924788,0.01546415413735696
9.450000000000001,0.9414898549718184,0.6534189745703434,0.01544058844521107
9.5,0.9414268005179296,0.6535485054854822,0.01541753515171693
9.55,0.9413615168303932,0.6536725039798523,0.015394970121295953
9.600000000000001,0.9412941023364786,0.6537907710583998,0.015372869287356738
9.65,0.9412246591549904,0.6539031162194214,0.015351208676448251
9.700000000000001,0.9411532929391984,0.6540093577968231,0.015329964430568117
9.75,0.9410801127058694,0.6541093233067864,0.015309112827436109
9.8,0.9410052306617436,0.6542028497661819,0.015288630295732587
9.850000000000001,0.940928762020743,0.6542897840011999,0.015268493426962463
9.9,0.9408508248168079,0.6543699829389055,0.01524867898403181
9.950000000000001,0.9407715397140299,0.6544433138749847,0.01522916390588102
10,0.9406910297988389,0.6545096547470213,0.01520992530997854
10.05,0.9406094203754708,0.6545688943741158,0.015190940491178986
10.100000000000001,0.9405268388018765,0.654620932998966,0.015172186922988511
10.15,0.9404434141438016,0.6546656817132087,0.015153642239432299
10.200000000000001,0.9403592770388621,0.6547030631070713,0.015135284232830183
10.25,0.9402745594990622,0.6547330115917893,0.015117090846013943
10.3,0.940189394589575,0.6547554726570751,0.01509904014873613
10.350000000000001,0.9401039164257935,0.6547704053761534,0.015081110351722481
10.4,0.9400182596568487,0.6547777799069929,0.015063279763760285
10.450000000000001,0.9399325593535439,0.654777578545712,0.015045526784843687
10.5,0.9398469507737617,0.6547697958626689,0.015027829892171274
10.55,0.9397615691067606,0.6547544390087131,0.015010167624643259
10.600000000000001,0.9396765492511753,0.6547315268767001,0.01499251856367775
10.65,0.9395920255773856,0.6547010906036795,0.014974861319047503
10.700000000000001,0.9395081316905579,0.6546631737085506,0.014957174515716825
10.75,0.93942500026372,0.6546178311131087,0.014939436779254796
10.8,0.93934276260749,0.6545651315123213,0.014921626724610604
10.850000000000001,0.9392615486270744,0.6545051545601897,0.014903722948375043
10.9,0.9391814865432957,0.6544379917681584,0.014885704018353804
10.950000000000001,0.9391027026590194,0.6543637464278058,0.014867548468981836
11,0.9390253210788579,0.6542825336750411,0.014849234798107477
11.05,0.93894946365455,0.6541944794999142,0.014830741469807148
11.100000000000001,0.9388752496898064,0.65409972101049485,0.014812046914927546
11.15,0.9388027957082007,0.6539984063523193,0.014793129537364991
11.200000000000001,0.9387322154735476,0.6538906936329304,0.014773967725003697
11.25,0.9386636192093897,0.6537767527821308,0.014754539859624907
11.3,0.9385971140409678,0.6536567628517609,0.014734824341649497
11.350000000000001,0.9385328036004286,0.6535309126171447,0.014714799606123713
11.4,0.9384707878371004,0.653399400297983,0.014694444147552362
11.450000000000001,0.9384111628758486,0.6532624331359497,0.01467373654890203
11.5,0.938354020866804,0.6531202270217297,0.014652655513633412
11.55,0.9382994498429651,0.6529730061085849,0.014631179901571876
11.600000000000001,0.9382475335866101,0.6528210024120603,0.014609288768393881
11.65,0.9381983515047206,0.6526644553966958,0.014586961408608028
11.700000000000001,0.9381519785135505,0.6525036115509713,0.014564177401888728
11.75,0.9381084849324652,0.6523387239516178,0.014540916662585727
11.8,0.9380679363871478,0.6521700518184548,0.014517159492204782
11.850000000000001,0.938030393722229,0.6519978600609132,0.01449288663462789
11.9,0.9379959129233767,0.6518224188174108,0.014468079333816157
11.950000000000001,0.9379645450508867,0.651644003004054,0.014442719391765096
12,0.9379363361743327,0.6514628918000238,0.014416789235885541
12.05,0.9379113273284048,0.6512793682053045,0.01439027197799159
12.100000000000001,0.9378895544731336,0.6510937185690796,0.01436315147823512
12.15,0.9378710484603433,0.6509062320954089,0.01433541241255623
12.200000000000001,0.9378558350121474,0.6507172003662609,0.014307040338266649
12.25,0.9378439347079405,0.6505269168591037,0.014278021760627223
12.3,0.9378353629796485,0.6503356764710221,0.014248344198431859
12.350000000000001,0.9378301301165141,0.6501437750567102,0.014217996247422288
12.4,0.9378282412767466,0.6499515089371425,0.01418696764717886
12.450000000000001,0.937829696508478,0.6497591744369701,0.014155249343089555
12.5,0.9378344907771726,0.6495670674368532,0.014122833545292484
12.55,0.9378426140044077,0.6493754828728029,0.014089713793116168
12.600000000000001,0.9378540511099425,0.6491847143179541,0.014055885006750963
12.65,0.9378687820617252,0.6489950535438639,0.014021343539775568
12.700000000000001,0.9378867819342023,0.6488067900684551,0.013986087231163858
12.75,0.9379080209724109,0.6486202107302279,0.013950115451093937
12.8,0.9379324646630606,0.6484355992656567,0.013913429143398014
12.850000000000001,0.9379600738104755,0.6482532358995848,0.013876030863561708
12.9,0.9379908046170728,0.648073396955876,0.013837924810803696
12.950000000000001,0.9380246087736893,0.6478963544489091,0.013799116858443787
13,0.9380614335518954,0.6477223757074092,0.013759614576806958
13.05,0.9381012217855835,0.647551722849448,0.013719427299004624
13.100000000000001,0.938143912269014,0.6473846527913204,0.013678566013507578
13.15,0.9381894396835923,0.6472214166919327,0.0136370434439547
13.200000000000001,0.9382377346494449,0.6470622595445286,0.013594874073681214
13.25,0.938288723900965,0.6469074199136814,0.013552074117266558
13.3,0.9383423304059211,0.6467571296217739,0.013508661509709323
13.350000000000001,0.9383984734878805,0.6466116134466183,0.0134646558895674
13.4,0.9384570689517459,0.6464710888308631,0.01342007857604563
13.450000000000001,0.9385180294199068,0.646335766089091,0.013374952438212137
13.5,0.9385812637790417,0.6462058466118402,0.013329302193147232
13.55,0.9386466780873985,0.6460815242553701,0.013283153991503668
13.600000000000001,0.9387141754107244,0.6459629845047152,0.01323653551408222
13.65,0.9387836559431483,0.6458504041898084,0.013189475928757797
13.700000000000001,0.9388550171698953,0.6457439513142695,0.013142005821179007
13.75,0.9389281540106142,0.6456437848512971,0.013094157130905035
13.8,0.9390029589641016,0.6455500545501772,0.013045963082403269
13.850000000000001,0.9390793222546573,0.6454629007549628,0.01299745811105224
13.9,0.9391571319800291,0.6453824542353789,0.012948677784374564
13.950000000000001,0.9392362742119381,0.6453088357534356,0.01289965874485813
14,0.9393166332770115,0.6452421566018108,0.012850438553616067
14.05,0.9393980918247373,0.6451825180682549,0.01280105564284448
14.100000000000001,0.9394805309536715,0.6451300111799173,0.012751549235549461
14.15,0.9395638304749251,0.6450847173687888,0.012701959192054328
14.200000000000001,0.9396478687896714,0.6450467063156927,0.012652326047102983
14.25,0.9397325233751666,0.645016038120812,0.012602690743576844
14.3,0.9398176708044034,0.6449927623933298,0.012553094593515203
14.350000000000001,0.9399031868993024,0.6449769181251587,0.012503579174239937
14.4,0.9399889468884479,0.6449685334103238,0.012454186215607331
14.450000000000001,0.9400748255990494,0.6449676261488735,0.012404957485481477
14.5,0.9401606975900539,0.6449742035822122,0.012355934686042201
14.55,0.9402464373044572,0.6449882621341259,0.012307159346494859
14.600000000000001,0.9403319192309473,0.6450097882214971,0.012258672730852219
