time,e,omega,d
0,0.942,0.6482532304803152,0.02633076200788132
0.05,0.9420196333165812,0.6483851798941881,0.026245702761234075
0.1,0.9420370383308172,0.648518672714765,0.026161597896140837
0.15000000000000002,0.9420521870713024,0.6486535578017235,0.026078445349949506
0.2,0.9420650571303433,0.6487897012392928,0.025996242609106976
0.25,0.9420756211090335,0.6489269226192589,0.025914985512884188
0.30000000000000004,0.9420838600989216,0.649065071221945,0.02583466951517755
0.35000000000000003,0.9420897566758245,0.6492039884906831,0.025755289179121607
0.4,0.9420932961746215,0.6493435144857539,0.02567683826988085
0.45,0.9420944667011948,0.6494834880127255,0.02559930978253
0.5,0.9420932591670578,0.64962374681528,0.025522695965406808
0.55,0.942089667316508,0.6497641277522174,0.0254469883454752
0.6000000000000001,0.9420836877510449,0.6499044669776177,0.02537217775459992
0.65,0.942075319950584,0.650044600122685,0.025298254356696016
0.7000000000000001,0.9420645662914057,0.6501843624791412,0.02522520767563028
0.75,0.9420514320607604,0.6503235891840092,0.025153026623753523
0.8,0.9420359254680623,0.6504621154056259,0.02508169953094159
0.8500000000000001,0.9420180576525998,0.65059977653073,0.025011214174022835
0.9,0.9419978426877035,0.650736408352467,0.02494155780647005
0.9500000000000001,0.9419752975813058,0.6508718472591577,0.024872717188235884
1,0.9419504422728411,0.651005930423673,0.02480467861561224
1.05,0.94192329962643,0.6511384959932636,0.024737427950996208
1.1,0.9418938954203021,0.6512693832796892,0.024670950652447596
1.1500000000000001,0.9418622583324138,0.6513984329494961,0.024605231802926418
1.2000000000000002,0.9418284199222209,0.6515254872142892,0.02454025613910217
1.25,0.9417924146085751,0.6516503900208472,0.024476008079631
1.3,0.9417542796437132,0.6517729872409275,0.024412471752801503
1.35,0.941714055083317,0.651893126860605,0.02434963102345491
1.4000000000000001,0.9416717837526266,0.6520106591689913,0.024287469519091137
1.4500000000000002,0.9416275112085946,0.6521254369461742,0.024225970655077988
1.5,0.9415812856980734,0.6522373156502165,0.02416511765888729
1.55,0.9415331581120392,0.6523461536030475,0.024104893593288462
1.6,0.9414831819358538,0.6524518121750786,0.024045281378437047
1.6500000000000001,0.9414314131955811,0.6525541559683641,0.02398626381280317
1.7000000000000002,0.9413779104003752,0.6526530529981248,0.023927823592892552
1.75,0.9413227344809648,0.6527483748724435,0.023869943331720607
1.8,0.9412659487242698,0.652839996969931,0.023812605576008145
1.85,0.9412076187041875,0.652927798615154,0.023755792822075718
1.9000000000000001,0.9411478122085974,0.653011663251602,0.02369948753042177
1.9500000000000002,0.9410865991626389,0.6530914786119643,0.023643672138978413
2,0.94102405142248,0.6531671366014695,0.023588329075255852
2.0500000000000003,0.9409602431068274,0.653238534357058,0.023533440764712175
2.1,0.940895250039794,0.6533055734445814,0.02347898964449646
2.15,0.940829149842627,0.6533681603650408,0.023424958168671114
2.2,0.9407620218504256,0.6534262067392477,0.02337132881559779
2.25,0.9406939470012856,0.6534796294284699,0.023318084093519032
2.3000000000000003,0.9406250077354691,0.6535283506775272,0.0232652065451352
2.35,0.9405552878918039,0.65357229825363,0.023212678751076528
2.4000000000000004,0.9404848726012587,0.65361140557985,0.023160483332366925
2.45,0.9404138481777894,0.6536456118628348,0.023108602951962383
2.5,0.9403423020066174,0.6536748622144212,0.023057020315442114
2.5500000000000003,0.9402703224301008,0.6536991077667725,0.023005718170940256
2.6,0.9401979986313622,0.6537183057806512,0.02295467930841098
2.6500000000000004,0.9401254205158531,0.6537324197464405,0.022903886558325343
2.7,0.9400526785910351,0.6537414194775297,0.022853322789902826
2.75,0.9399798638529655,0.6537452813764886,0.02280297091017227
2.8000000000000003,0.9399070676352641,0.6537439880628608,0.022752813859185306
2.85,0.9398343815052282,0.6537375287082379,0.022702834608392414
2.9000000000000004,0.9397618971444405,0.6537258991838357,0.02265301615882547
2.95,0.9396897062190941,0.6537091016061133,0.022603341536170326
3,0.9396179002505165,0.6536871457170695,0.02255379379399858
3.0500000000000003,0.9395465704724553,0.6536600474390409,0.022504356007715096
3.1,0.9394758077183628,0.6536278294457207,0.022455011273413133
3.1500000000000004,0.9394057022907042,0.6535905212125809,0.02240574270773246
3.2,0.9393363438101241,0.6535481591589437,0.022356533448315577
3.25,0.9392678211405678,0.653500786164062,0.022307366653022003
3.3000000000000003,0.9392002222368917,0.6534484518239968,0.02225822550155446
3.35,0.9391336340107165,0.6533912125082612,0.022209093198380925
3.4000000000000004,0.9390681422905408,0.6533291308064871,0.022159952973899583
3.45,0.9390038314683008,0.6532622768047872,0.02211078809473291
3.5,0.9389407846175495,0.6531907265318175,0.022061581865754864
3.5500000000000003,0.9388790832953429,0.6531145624372529,0.0220123176374844
3.6,0.9388188074164682,0.6530338733371445,0.021962978815332188
3.6500000000000004,0.9387600350944,0.6529487544336583,0.021913548872023746
3.7,0.9387028426579938,0.6528593067700789,0.021864011354183168
3.75,0.9386473044722472,0.6527656373622943,0.021814349897667652
3.8000000000000003,0.9385934928096944,0.6526678591454153,0.02176454824321209
3.85,0.9385414779108383,0.6525660903870657,0.021714590243906592
3.9000000000000004,0.938491327451342,0.6524604556740383,0.021664459906898758
3.95,0.9384431069146213,0.6523510844570605,0.021614141389032105
4,0.9383968793351395,0.6522381113655871,0.021563619025229606
4.05,0.9383527051968706,0.6521216760519661,0.021512877351848307
4.1000000000000005,0.9383106423655381,0.6520019229579479,0.0214619011300261
4.15,0.9382707460120538,0.6518790011092339,0.021410675370855687
4.2,0.9382330685400129,0.6517530639031481,0.021359185361993778
4.25,0.9381976595177405,0.6516242688893811,0.02130741669554405
4.3,0.9381645656149886,0.6514927775442381,0.021255355297125845
4.3500000000000005,0.9381338305461527,0.6513587550466476,0.021202987455055004
4.4,0.9381054950110207,0.6512223700197645,0.021150299854302165
4.45,0.938079596650233,0.651083794305477,0.02109727960630712
4.5,0.9380561700017043,0.6509432027216737,0.02104391428141605
4.55,0.9380352464593098,0.6508007728053543,0.02099019194326204
4.6000000000000005,0.9380168542388826,0.65065668456158,0.02093610118243759
4.65,0.9380010183485578,0.6505111202068564,0.02088163115095405
4.7,0.9379877605639267,0.6503642639135259,0.020826771596488665
4.75,0.9379770994090624,0.6502163015587291,0.020771512895907458
4.800000000000001,0.9379690501399703,0.6500674204554054,0.02071584609098905
4.8500000000000005,0.9379636247345362,0.6499178090959958,0.020659762922072732
4.9,0.9379608318867866,0.6497676569022189,0.020603255860570935
4.95,0.9379606770050366,0.6496171539427401,0.020546318145134152
5,0.9379631622157997,0.6494664906944125,0.020488943811437767
5.050000000000001,0.9379682863712574,0.6493158577900345,0.02043112772314274
5.1000000000000005,0.9379760450608448,0.649165445756343,0.020372865603285925
5.15,0.9379864306274234,0.6490154447645498,0.020314154063038443
5.2,0.9379994321876693,0.6488660443804971,0.020254990629447998
5.25,0.9380150356559379,0.6487174333204166,0.020195373771425967
5.300000000000001,0.938033223771801,0.6485697992163385,0.020135302923262103
5.3500000000000005,0.9380539761324158,0.648423328368242,0.02007477850826448
5.4,0.9380772692277111,0.6482782055131822,0.020013801958906896
5.45,0.938103076479163,0.6481346135961316,0.019952375735182788
5.5,0.9381313682819754,0.6479927335450023,0.019890503340770714
5.550000000000001,0.9381621120504899,0.6478527440504356,0.019828189336850804
5.6000000000000005,0.9381952722667,0.6477148213505861,0.019765439353467515
5.65,0.9382308105317397,0.6475791390210757,0.01970226009834277
5.7,0.9382686856183842,0.6474458677768522,0.01963865936289111
5.75,0.9383088535331223,0.6473151752540282,0.019574646026248897
5.800000000000001,0.9383512675721659,0.6471872258311504,0.01951023005542718
5.8500000000000005,0.9383958783827336,0.6470621804437888,0.019445422503108812
5.9,0.9384426340292347,0.6469401963956825,0.019380235502890673
5.95,0.9384914800596772,0.646821427183946,0.019314682261276275
6,0.9385423595744351,0.6467060223290115,0.0192487770468058
6.050000000000001,0.9385952132971,0.6465941272104044,0.019182535176246195
6.1000000000000005,0.9386499796472343,0.6464858829085636,0.01911597299783871
6.15,0.9387065948149194,0.6463814260527749,0.01904910787161697
6.2,0.9387649928369995,0.6462808886752426,0.018981958146818453
6.25,0.9388251056749233,0.646184398071318,0.018914543136424333
6.300000000000001,0.9388868632940889,0.6460920766659027,0.01884688308887352
6.3500000000000005,0.9389501937446045,0.6460040418860348,0.01877899915700773
6.4,0.9390150232433764,0.6459204060396591,0.01871091336431501
6.45,0.9390812762574423,0.6458412762005826,0.01864264856854964
6.5,0.9391488755884746,0.6457667540996077,0.01857422842281625
6.550000000000001,0.9392177424583733,0.6456969360218344,0.018505677334215907
6.6000000000000005,0.9392877965958641,0.645631912709997,0.01843702042020675
6.65,0.9393589563241219,0.645571769274393,0.01836828346258119
6.7,0.9394311386491914,0.6455165851084125,0.01829949285955511
6.75,0.9395042593492644,0.6454664338103058,0.018230675575847
6.800000000000001,0.9395782330647467,0.6454213831111801,0.01816185909088664
6.8500000000000005,0.9396529733890351,0.6453814948090538,0.01809307134536158
6.9,0.939728392959944,0.6453468247089055,0.01802434068626881
6.95,0.939804403551747,0.6453174225687833,0.017955695810599977
7,0.9398809161677775,0.6452933320519366,0.017887165707832078
7.050000000000001,0.939957841133545,0.6452745906849519,0.017818779601392908
7.1000000000000005,0.9400350881903197,0.6452612298218774,0.017750566889274618
7.15,0.9401125665891409,0.6452532746143205,0.017682557083971855
7.2,0.9401901851852084,0.6452507439875029,0.017614779751923788
7.25,0.9402678525326125,0.6452536506222598,0.01754726445264147
7.300000000000001,0.9403454769793622,0.6452620009429724,0.01748004067770069
7.3500000000000005,0.9404229667626671,0.6452757951114174,0.01741313778979643
7.4,0.9405002301044373,0.6452950270265274,0.01734658496201958
7.45,0.9405771753069533,0.6453196843300483,0.017280411117560172
7.5,0.940653710848668,0.6453497484180843,0.017214644870006814
7.550000000000001,0.9407297454800932,0.6453851944585219,0.017149314464430992
7.6000000000000005,0.9408051883197299,0.6454259914143214,0.01708444771942682
7.65,0.9408799489499939,0.6454721020726671,0.017020071970282876
7.7,0.9409539375130924,0.6455234830799653,0.01695621401345659
7.75,0.9410270648067981,0.6455800849826792,0.016892900052516847
7.800000000000001,0.9410992423800738,0.6456418522739878,0.016830155645715505
7.8500000000000005,0.9411703826284914,0.6457087234462553,0.01676800565534284
7.9,0.9412403988893902,0.6457806310492944,0.016706474199015643
7.95,0.9413092055367163,0.645857501754406,0.016645584603039797
8,0.9413767180754815,0.6459392564241749,0.01658535935798181
8.05,0.9414428532357778,0.6460258101879964,0.01652582007657577
8.1,0.9415075290662794,0.6461170725233072,0.016466987454083922
8.15,0.9415706650271652,0.6462129473424891,0.016408881231219988
8.200000000000001,0.9416321820823832,0.6463133330854097,0.016351520159735195
8.25,0.9416920027911853,0.6464181228175596,0.016294921970757322
8.3,0.9417500513988497,0.6465272043337398,0.01623910334596267
8.35,0.9418062539265086,0.6466404602672491,0.016184079891651004
8.4,0.9418605382599944,0.6467577682045141,0.016129866115782203
8.450000000000001,0.941912834237616,0.6468790008050976,0.016076475408022924
8.5,0.9419630737367699,0.6470040259270157,0.01602392002284003
8.55,0.9420111907592934,0.6471327067572873,0.015972211065667104
8.6,0.9420571215154591,0.6472649019476323,0.015921358482156853
8.65,0.9421008045065095,0.6474004657552265,0.015871371050523043
8.700000000000001,0.9421421806056257,0.6475392481884142,0.015822256376963852
8.75,0.9421811931372267,0.6476810951572741,0.01577402089414468
8.8,0.9422177879544865,0.6478258486289247,0.015726669862709475
8.85,0.9422519135149606,0.6479733467874472,0.01568020737577739
8.9,0.9422835209542065,0.6481234241982995,0.01563463636637033
8.950000000000001,0.9423125641572845,0.6482759119770843,0.01558995861770632
9,0.9423389998280214,0.6484306379625302,0.01554617477628265
9.05,0.9423627875559221,0.6485874268935369,0.015503284367662618
9.1,0.9423838898806083,0.6487461005901288,0.015461285814869639
9.15,0.9424022723536669,0.648906478138159,0.015420176459282791
9.200000000000001,0.9424179035977899,0.6490683760775933,0.015379952583918952
9.25,0.9424307553630858,0.6492316085942087,0.015340609438977883
9.3,0.9424408025804466,0.6493959877145291,0.015302141269518609
9.35,0.9424480234118495,0.6495613235038222,0.015264541345127936
9.4,0.9424523992974807,0.6497274242669769,0.015227801991435011
9.450000000000001,0.9424539149995642,0.6498940967520795,0.01519191462331965
9.5,0.9424525586427834,0.6500611463565079,0.015156869779656598
9.55,0.9424483217511841,0.6502283773353589,0.015122657159432965
9.600000000000001,0.9424411992814503,0.6503955930120293,0.015089265659072147
9.65,0.9424311896524474,0.6505625959907702,0.015056683410793952
9.700000000000001,0.9424182947709288,0.6507291883710358,0.015024897821838325
9.75,0.9424025200533066,0.6508951719634554,0.014993895614378056
9.8,0.9423838744433903,0.6510603485072561,0.014963662865945073
9.850000000000001,0.9423623704260006,0.6512245198889713,0.014934185050194565
9.9,0.94233802403637,0.651387488362277,0.014905447077834437
9.950000000000001,0.9423108548652426,0.6515490567687905,0.014877433337534525
10,0.9422808860595995,0.6517090287597012,0.014850127736666168
10.05,0.9422481443189293,0.651867209018073,0.014823513741683707
10.100000000000001,0.9422126598869748,0.6520234034816916,0.014797574417994763
10.15,0.9421744665388876,0.6521774195663159,0.014772292469151224
10.200000000000001,0.9421336015637342,0.6523290663892152,0.014747650275212711
10.25,0.9420901057422953,0.6524781549928675,0.014723629930131456
10.3,0.9420440233201103,0.6526244985686995,0.014700213278016652
10.350000000000001,0.9419954019757215,0.6527679126807555,0.014677381948143853
10.4,0.9419442927840809,0.6529082154891802,0.014655117388583064
10.450000000000001,0.9418907501750869,0.6530452279734015,0.014633400898327433
10.5,0.9418348318872257,0.6531787741549002,0.014612213657814323
10.55,0.9417765989162975,0.6533086813194435,0.014591536757739417
10.600000000000001,0.941716115459214,0.6534347802386637,0.014571351226075672
10.65,0.9416534488528644,0.6535569053908435,0.014551638053218815
10.700000000000001,0.9415886695080489,0.6536748951807713,0.01453237821519295
10.75,0.9415218508384889,0.653788592158505,0.014513552694859919
10.8,0.9414530691849342,0.653897843236884,0.014495142501090783
10.850000000000001,0.9413824037343885,0.6540024999075907,0.014477128685866628
10.9,0.9413099364344902,0.6541024184555586,0.014459492359288211
10.950000000000001,0.9412357519030914,0.6541974601714982,0.014442214702490276
11,0.9411599373330861,0.6542874915622823,0.014425276978465117
11.05,0.9410825823925532,0.6543723845589108,0.0144086605408139
11.100000000000001,0.9410037791202833,0.6544520167217424,0.01439234684045711
11.15,0.9409236218167794,0.6545262714426529,0.014376317430347837
11.200000000000001,0.9408422069308193,0.6545950381437465,0.014360553968244366
11.25,0.9407596329416941,0.654658212472216,0.01434503821761075
11.3,0.9406760002372371,0.6547156964909132,0.014329752046726214
11.350000000000001,0.9405914109877789,0.6547673988641597,0.014314677426096224
11.4,0.9405059690161713,0.6548132350382954,0.014299796424269286
11.450000000000001,0.9404197796640412,0.654853127416434,0.014285091202174909
11.5,0.9403329496544454,0.6548870055268607,0.014270544006108547
11.55,0.9402455869511132,0.6549148061844896,0.014256137159499416
11.600000000000001,0.9401578006144786,0.6549364736447655,0.01424185305360649
11.65,0.9400697006547165,0.6549519597493835,0.014227674137296564
11.700000000000001,0.9399813978820104,0.654961224063181,0.01421358290606626
11.75,0.9398930037542941,0.6549642340015547,0.014199561890474334
11.8,0.9398046302227394,0.6549609649476992,0.014185593644171069
11.850000000000001,0.9397163895752297,0.6549514003590903,0.014171660731683187
11.9,0.9396283942781308,0.6549355318624825,0.014157745716158422
11.950000000000001,0.9395407568166382,0.6549133593368285,0.014143831147245522
12,0.9394535895340197,0.6548848909834654,0.014129899549306654
12.05,0.939367004470061,0.6548501433830038,0.014115933410145751
12.100000000000001,0.9392811131990462,0.6548091415383471,0.014101915170443917
12.15,0.939196026667606,0.654761918903323,0.014087827214089231
12.200000000000001,0.9391118550327786,0.6547085173964523,0.014073651859584568
12.25,0.9390287075006285,0.6546489873994342,0.014059371352712895
12.3,0.9389466921657771,0.654583387739985,0.014044967860633473
12.350000000000001,0.9388659158521989,0.6545117856587271,0.014030423467575376
12.4,0.9387864839556382,0.6544342567598976,0.01401572017228611
12.450000000000001,0.9387085002880002,0.6543508849457123,0.014000839887383685
12.5,0.9386320669240699,0.6542617623342986,0.013985764440749227
12.55,0.9385572840509022,0.6541669891611877,0.013970475579085213
12.600000000000001,0.9384842498202306,0.6540666736644265,0.013954954973752575
12.65,0.9384130602042154,0.6539609319534646,0.013939184228981214
12.700000000000001,0.9383438088548636,0.6538498878620317,0.013923144892539225
12.75,0.9382765869674335,0.65373367278530925,0.013906818468929317
12.8,0.9382114831481141,0.6536124255017727,0.013890186435158203
12.850000000000001,0.9381485832862644,0.6534862919801481,0.013873230259113922
12.9,0.9380879704314825,0.6533554251720032,0.013855931420566174
12.950000000000001,0.9380297246757524,0.6532199847905493,0.013838271434786428
13,0.937973923040901,0.6530801370762936,0.013820231878766399
13.05,0.9379206393715747,0.6529360545502357,0.013801794419995224
13.100000000000001,0.9378699442339303,0.6527879157553456,0.013782940847737162
13.15,0.9378219048202076,0.6526359049871084,0.013763653106733692
13.200000000000001,0.9377765848593337,0.6524802120139497,0.013743913333235856
13.25,0.9377340445336872,0.6523210317883866,0.013723703893255456
13.3,0.9376943404021252,0.6521585641497736,0.013703007422906956
13.350000000000001,0.9376575253293571,0.6519930135195222,0.013681806870695574
13.4,0.9376236484217276,0.6518245885896872,0.0136600855415923
13.450000000000001,0.9375927549694458,0.6516535020058113,0.013637827142721494
13.5,0.9375648863952811,0.6514799700449176,0.013615015830474128
13.55,0.9375400802097228,0.6513042122895304,0.013591636258846894
13.600000000000001,0.9375183699725833,0.6511264512985767,0.0135676736287998
13.65,0.9374997852610001,0.6509469122760743,0.013543113738397101
13.700000000000001,0.9374843516437823,0.6507658227383205,0.013517943033529661
13.75,0.9374720906620249,0.6505834121804761,0.013492148658957842
13.8,0.9374630198158953,0.6503999117432497,0.013465718509447272
13.850000000000001,0.9374571525574921,0.6502155538804585,0.013438641280741145
13.9,0.9374544982896491,0.6500305720281231,0.013410906520127695
13.950000000000001,0.9374550623705575,0.6498452002757686,0.01338250467634902
14,0.9374588461240588,0.649659673040549,0.013353427148600275
14.05,0.9374658468554571,0.649474224744771,0.013323666334369572
14.100000000000001,0.9374760578726876,0.6492890894973584,0.013293215675871535
14.15,0.9374894685126729,0.6491045007797488,0.013262069704831222
14.200000000000001,0.9375060641726881,0.6489206911366834,0.013230224085380535
14.25,0.9375258263465591,0.6487378918723045,0.013197675654835499
14.3,0.9375487326655042,0.6485563327519402,0.01316442246213063
14.350000000000001,0.9375747569434341,0.6483762417099154,0.01313046380369537
14.4,0.9376038692265221,0.6481978445636932,0.013095800256567272
14.450000000000001,0.9376360358468517,0.6480213647346171,0.013060433708547654
14.5,0.9376712194799558,0.6478470229754876,0.013024367385217128
14.55,0.9377093792060538,0.6476750371051799,0.012987605873640916
14.600000000000001,0.9377504705748061,0.6475056217504757,0.012950155142607476
