time,e,omega,d
0,0.942,0.6482532304803152,0.02633076200788132
0.05,0.9420201580688636,0.6483242676759757,0.0262455580840197
0.1,0.942039145214804,0.6483960274770747,0.026161019665321184
0.15000000000000002,0.9420569482967327,0.6484684681248428,0.026077145963063927
0.2,0.9420735563872682,0.6485415526957079,0.025993936092166475
0.25,0.942088955598479,0.6486152315234917,0.025911388647704692
0.30000000000000004,0.9421031355101535,0.6486894632087814,0.0258295021591737
0.35000000000000003,0.9421160858786334,0.6487642042187292,0.025748274893615017
0.4,0.9421277972122979,0.6488394106470132,0.025667704887127014
0.45,0.9421382607743627,0.6489150382339814,0.025587789948952024
0.5,0.9421474685912391,0.6489910423954948,0.025508527664452448
0.55,0.9421554134595286,0.6490673782495044,0.025429915398458347
0.6000000000000001,0.942162088952643,0.6491440006430989,0.0253519502987916
0.65,0.942167489426963,0.6492208641798201,0.025274629299972543
0.7000000000000001,0.9421716100275321,0.6492979232472361,0.025197949127099807
0.75,0.9421744466932725,0.64937513204475406,0.02512190629989428
0.8,0.9421759961617201,0.6494524446116565,0.02504649713689785
0.8500000000000001,0.9421762559732666,0.6495298148553471,0.02497171775981745
0.9,0.9421752244749038,0.649607196579787,0.024897564098004612
0.9500000000000001,0.9421729008234615,0.6496845435141064,0.024824031893060854
1,0.9421692849883326,0.6497618093413728,0.024751116703558847
1.05,0.9421643777536789,0.6498389477275002,0.024678813909869354
1.1,0.94215818072011,0.6499159123502776,0.02460711871908393
1.1500000000000001,0.9421506963058324,0.6499926569285043,0.024536026170023074
1.2000000000000002,0.9421419277472598,0.6500691352512078,0.024465531138319868
1.25,0.9421318790990818,0.650145301206928,0.02439562834156877
1.3,0.9421205552337854,0.6502211088130506,0.024326312344529557
1.35,0.942107961840625,0.6502965122451652,0.024257577564376322
1.4000000000000001,0.9420941054240373,0.6503714658664339,0.024189418275981475
1.4500000000000002,0.9420789933014981,0.6504459242569472,0.02412182861722491
1.5,0.9420626336008164,0.6505198422430488,0.02405480259431861
1.55,0.9420450352568646,0.6505931749266072,0.02398833408713695
1.6,0.942026208007744,0.6506658777142168,0.023922416854543407
1.6500000000000001,0.9420061623903806,0.6507379063463044,0.02385704453970432
1.7000000000000002,0.9419849097355543,0.6508092169261231,0.02379221067538071
1.75,0.9419624621623576,0.650879765948612,0.0237279086891894
1.8,0.9419388325720858,0.6509495103290981,0.023664131908824822
1.85,0.9419140346415587,0.6510184074318252,0.023600873567233352
1.9000000000000001,0.9418880828158757,0.6510864150982825,0.02353812680773216
1.9500000000000002,0.941860992300604,0.6511534916753151,0.02347588468906493
2,0.9418327790534045,0.6512195960429952,0.023414140190387216
2.0500000000000003,0.9418034597750964,0.6512846876422308,0.023352886216174405
2.1,0.941773051900165,0.651348726502093,0.023292115601045778
2.15,0.9417415735867167,0.6514116732668384,0.02323182111449838
2.2,0.941709043705884,0.651473489222608,0.023171995465544975
2.25,0.9416754818306882,0.6515341363237791,0.023112631307250678
2.3000000000000003,0.9416409082243634,0.6515935772189507,0.02305372124116321
2.35,0.941605343828149,0.6516517752765408,0.02299525782163233
2.4000000000000004,0.9415688102485569,0.6517086946099755,0.022937233560014286
2.45,0.9415313297441217,0.6517643001024477,0.022879640928757602
2.5,0.9414929252116421,0.6518185574312284,0.022822472365367042
2.5500000000000003,0.941453620171919,0.6518714330915057,0.022765720276242938
2.6,0.9414134387174294,0.6519228943663931,0.022709377041993595
2.6500000000000004,0.9413724056200128,0.6519729095188497,0.02265343501545273
2.7,0.9413305461774356,0.6520214476307727,0.02259788653175328
2.75,0.9412878862500764,0.6520684786917558,0.022542723908896736
2.8000000000000003,0.9412444522479938,0.6521139736263442,0.02248793945086341
2.85,0.9412002711097429,0.6521579043091552,0.022433525450848337
2.9000000000000004,0.9411553702848677,0.6522002435847967,0.02237947419419445
2.95,0.9411097777160006,0.6522409652872543,0.02232577796119265
3,0.9410635218205701,0.6522800442586386,0.022272429029752048
3.0500000000000003,0.9410166314721204,0.652317456367273,0.022219419677943792
3.1,0.9409691359812601,0.6523531785251083,0.02216674218642043
3.1500000000000004,0.9409210650762526,0.65238718870444945,0.022114388840713404
3.2,0.940872448883267,0.6524194659539767,0.02206235193341183
3.25,0.940823317906301,0.652449990414048,0.02201062376622599
3.3000000000000003,0.9407737030067944,0.6524787433312662,0.021959196651939395
3.35,0.9407236353829492,0.6525057070722989,0.02190806291625367
3.4000000000000004,0.9406731465487712,0.6525308651369364,0.021857214899530675
3.45,0.9406222683128531,0.6525542021703745,0.02180664495843694
3.5,0.9405710327569136,0.6525757039747121,0.02175634546749541
3.5500000000000003,0.9405194722141117,0.6525953575196496,0.02170630882055013
3.6,0.9404676192471553,0.6526131509523786,0.02165652743214957
3.6500000000000004,0.9404155066262178,0.6526290736066527,0.021606993738854566
3.7,0.9403631673066875,0.652643116011029,0.021557700200477137
3.75,0.9403106344067624,0.6526552698962725,0.02150863930125666
3.8000000000000003,0.9402579411849145,0.6526655282019158,0.021459803550979935
3.85,0.9402051210172365,0.6526738850819642,0.021411185486051983
3.9000000000000004,0.9401522073746978,0.6526803359097433,0.021362777670524496
3.95,0.940099233800321,0.6526848772818802,0.021314572697088936
4,0.9400462338863038,0.6526875070214168,0.021266563188041376
4.05,0.9399932412511036,0.6526882241800464,0.02121874179622633
4.1000000000000005,0.9399402895165042,0.652687029039475,0.02117110120596672
4.15,0.939887412284684,0.652683923111902,0.021123634133987212
4.2,0.9398346431153054,0.65267890913962,0.0210763333303381
4.25,0.9397820155026454,0.652671991093732,0.02102919157932695
4.3,0.9397295628527851,0.6526631741719855,0.020982201700465053
4.3500000000000005,0.9396773184608778,0.6526524647957284,0.020935356549435704
4.4,0.9396253154885165,0.6526398706059824,0.020888649019091175
4.45,0.9395735869412168,0.6526254004586418,0.020842072040485146
4.5,0.9395221656460371,0.6526090644187982,0.020795618583947163
4.55,0.9394710842293508,0.652590873754197,0.0207492816602055
4.6000000000000005,0.9394203750947938,0.6525708409278305,0.02070305432156458
4.65,0.9393700704014006,0.6525489795896732,0.020656929663142976
4.7,0.9393202020419501,0.6525253045675676,0.02061090082417755
4.75,0.9392708016215366,0.6524998318572675,0.020564960989399257
4.800000000000001,0.9392219004363853,0.6524725786116463,0.020519103390485596
4.8500000000000005,0.9391735294529271,0.6524435631290834,0.020473321307594616
4.9,0.9391257192871506,0.6524128048410343,0.020427608070984846
4.95,0.9390785001842471,0.6523803242987994,0.020381957062725258
5,0.9390319019985645,0.6523461431595015,0.020336361718499063
5.050000000000001,0.9389859541738849,0.6523102841712844,0.02029081552950454
5.1000000000000005,0.938940685711349,0.652272771186997,0.020245312046152507
5.15,0.9388961251812066,0.65223362907393,0.020199844876085074
5.2,0.9388523006864143,0.6521928837416858,0.020154407688705817
5.25,0.9388092398383561,0.6521505621392839,0.020108994218308775
5.300000000000001,0.9387669697766614,0.6521066921593635,0.020063598261494318
5.3500000000000005,0.9387255170505563,0.6520613028218535,0.020018213693058947
5.4,0.9386849077108717,0.6520144240277442,0.019972834454339217
5.45,0.9386451672538753,0.6519660866249867,0.019927454561080662
5.5,0.9386063206013567,0.6519163223936109,0.019882068106792834
5.550000000000001,0.9385683920881601,0.6518651640172061,0.019836669265299395
5.6000000000000005,0.938531405446969,0.6518126450605406,0.019791252293793384
5.65,0.9384953837935024,0.6517587999466538,0.019745811536009666
5.7,0.9384603496121926,0.6517036639334013,0.019700341425498088
5.75,0.9384263247423539,0.6516472730894656,0.01965483648899431
5.800000000000001,0.9383933303648467,0.6515896642698531,0.0196092913498853
5.8500000000000005,0.9383613869892465,0.6515308750909012,0.01956370073176577
5.9,0.9383305144415216,0.6514709439048172,0.01951805946208112
5.95,0.9383007318522273,0.6514099097737691,0.019472362475852354
6,0.9382720576452223,0.6513478124435539,0.0194266048194777
6.050000000000001,0.9382445095272508,0.651284692317741,0.019380781654479998
6.1000000000000005,0.9382181044767207,0.6512205904280877,0.019334888261804628
6.15,0.938192858734814,0.6511555484089535,0.019288920045532832
6.2,0.938168787796455,0.6510896084698603,0.019242872536886207
6.25,0.938145906401333,0.6510228133665124,0.019196741398448455
6.300000000000001,0.9381242285259124,0.6509552063725711,0.019150522428269836
6.3500000000000005,0.9381037673759146,0.650886831251019,0.019104211564026585
6.4,0.938084535379336,0.6508177322252515,0.019057804887205997
6.45,0.9380665441800117,0.6507479539499493,0.019011298627305735
6.5,0.9380498046317238,0.6506775414817547,0.018964689166038613
6.550000000000001,0.9380343267928565,0.6506065402497758,0.018917973041534124
6.6000000000000005,0.938020119921594,0.6505349960259381,0.018871146952527722
6.65,0.938007192471663,0.6504629548952101,0.01882420776252873
6.7,0.9379955520886158,0.6503904632257204,0.018777152503957555
6.75,0.9379852056066529,0.6503175676387922,0.018729978382242708
6.800000000000001,0.9379761590459809,0.6502443149789158,0.018682682779868058
6.8500000000000005,0.937968417610705,0.6501707522836786,0.01863526326036073
6.9,0.9379619856872509,0.6500969267536765,0.018587717572209696
6.95,0.9379568668433121,0.6500228857224268,0.018540043652705535
7,0.9379530638273199,0.6499486766263026,0.018492239631691297
7.050000000000001,0.9379505785684297,0.6498743469745087,0.01844430383521486
7.1000000000000005,0.9379494121770201,0.6497999443191214,0.01839623478907289
7.15,0.937949564945699,0.6497255162252075,0.01834803122223678
7.2,0.9379510363508112,0.6496511102410465,0.018299692070150808
7.25,0.9379538250544418,0.649576773868471,0.018251216477893215
7.300000000000001,0.937957928906909,0.6495025545333455,0.01820260380319052
7.3500000000000005,0.937963344949741,0.6494284995562012,0.018153853619276097
7.4,0.9379700694191291,0.6493546561230451,0.018104965717583812
7.45,0.937978097749851,0.6492810712563596,0.01805594011026791
7.5,0.9379874245796576,0.649207791786309,0.018006777032540538
7.550000000000001,0.9379980437541153,0.6491348643221713,0.017957476944818543
7.6000000000000005,0.9380099483318972,0.6490623352240084,0.01790804053467135
7.65,0.9380231305905155,0.6489902505745931,0.017858468718562268
7.7,0.9380375820324867,0.6489186561516057,0.017808762643375605
7.75,0.9380532933919244,0.6488475974001148,0.01775892368772241
7.800000000000001,0.9380702546415477,0.6487771194053585,0.017708953463018182
7.8500000000000005,0.9380884550001015,0.6487072668658378,0.017658853814325873
7.9,0.9381078829401777,0.6486380840667355,0.017608626820958363
7.95,0.9381285261964306,0.6485696148536748,0.017558274796834545
8,0.9381503717741779,0.6485019026068294,0.01750780029058394
8.05,0.9381734059583792,0.6484349902153955,0.017457206085394923
8.1,0.9381976143229835,0.6483689200524405,0.01740649519860226
8.15,0.9382229817406382,0.6483037339501362,0.017355670881010032
8.200000000000001,0.9382494923927498,0.6482394731753898,0.017304736615946503
8.25,0.9382771297798899,0.648176178405882,0.01725369611804802
8.3,0.9383058767325365,0.6481138897065218,0.017202553331769354
8.35,0.9383357154221441,0.648052646506328,0.01715131242961871
8.4,0.9383666273725324,0.6479924875757471,0.017099977810115692
8.450000000000001,0.9383985934715866,0.6479334510044154,0.01704855409547148
8.5,0.9384315939832611,0.6478755741793746,0.016997046128990626
8.55,0.9384656085598788,0.6478188937637491,0.016945458972194564
8.6,0.9385006162547161,0.6477634456758921,0.01689379790166748
8.65,0.9385365955348682,0.6477092650690071,0.016842068405625504
8.700000000000001,0.9385735242943846,0.6476563863112555,0.016790276180211044
8.75,0.9386113798676678,0.6476048429663531,0.01673842712551419
8.8,0.9386501390431291,0.6475546677746635,0.01668652734132398
8.85,0.9386897780770883,0.6475058926347957,0.016634583122612692
8.9,0.9387302727079181,0.6474585485857102,0.01658260095475672
8.950000000000001,0.9387715981704168,0.6474126657893402,0.01653058750849836
9,0.9388137292104081,0.647368273513733,0.0164785496346531
9.05,0.938856640099558,0.6473254001167169,0.01642649435856755
9.1,0.9389003046504019,0.647284073030098,0.01637442887433377
9.15,0.9389446962315738,0.6472443187443926,0.016322360538765953
9.200000000000001,0.9389897877832327,0.6472061627940985,0.016270296865146208
9.25,0.9390355518326761,0.6471696297435103,0.016218245516746308
9.3,0.9390819605101359,0.6471347431730824,0.016166214300132948
9.35,0.9391289855647496,0.6471015256663426,0.016114211158264467
9.4,0.9391765983806972,0.6470699987973627,0.016062244163387106
9.450000000000001,0.9392247699935024,0.6470401831187855,0.01601032150973975
9.5,0.9392734711064846,0.6470120981504156,0.015958451506076058
9.55,0.9393226721073611,0.6469857623683739,0.015906642568013423
9.600000000000001,0.9393723430849891,0.6469611931948207,0.015854903210218627
9.65,0.9394224538462426,0.6469384069882491,0.0158032420384402
9.700000000000001,0.939472973933017,0.646917419034353,0.01575166774139792
9.75,0.9395238726393556,0.6468982435374686,0.015700189082540228
9.8,0.939575119028691,0.6468808936125976,0.01564881489168041
9.850000000000001,0.9396266819511948,0.6468653812780075,0.015597554056522868
9.9,0.939678530061231,0.6468517174484175,0.015546415514090887
9.950000000000001,0.939730631834904,0.646839911928767,0.015495408242067615
10,0.9397829555876966,0.6468299734085723,0.015444541250061995
10.05,0.9398354694921927,0.6468219094568701,0.015393823570811822
10.100000000000001,0.9398881415958747,0.6468157265177528,0.015343264251335944
10.15,0.9399409398389948,0.6468114299064939,0.01529287234404798
10.200000000000001,0.9399938320725079,0.6468090238062668,0.015242656897843907
10.25,0.9400467860760642,0.6468085112654589,0.015192626949175916
10.3,0.9400997695760532,0.6468098941955798,0.015142791513125182
10.350000000000001,0.9401527502636935,0.6468131733697672,0.015093159574485916
10.4,0.9402056958131602,0.6468183484218906,0.015043740078873375
10.450000000000001,0.9402585738997464,0.6468254178462527,0.014994541923868256
10.5,0.9403113522180493,0.6468343789978911,0.014945573950210045
10.55,0.9403639985001767,0.6468452280934796,0.014896844933051656
10.600000000000001,0.9404164805339648,0.6468579602128307,0.014848363573287759
10.65,0.940468766181203,0.6468725693009982,0.014800138488968956
10.700000000000001,0.9405208233958572,0.6468890481709827,0.014752178206813937
10.75,0.9405726202422849,0.6469073885070364,0.014704491153831493
10.8,0.9406241249134372,0.6469275808685726,0.014657085649064228
10.850000000000001,0.9406753057490356,0.6469496146946742,0.01460996989546539
10.9,0.9407261312537225,0.6469734783092047,0.014563151971920239
10.950000000000001,0.9407765701151743,0.6469991589265207,0.014516639825423007
11,0.9408265912221698,0.6470266426577835,0.01447044126342026
11.05,0.9408761636826077,0.6470559145178721,0.014424563946331164
11.100000000000001,0.9409252568414653,0.6470869584328941,0.014379015380254937
11.15,0.9409738402986891,0.6471197572482951,0.014333802909875334
11.200000000000001,0.9410218839270117,0.6471542927375649,0.0142889337115717
11.25,0.9410693578896849,0.6471905456115384,0.014244414786745837
11.3,0.9411162326581216,0.6472284955282924,0.014200252955373471
11.350000000000001,0.9411624790294384,0.6472681211036311,0.014156454849788681
11.4,0.9412080681438904,0.6473093999221646,0.014113026908709352
11.450000000000001,0.9412529715021885,0.6473523085489743,0.014069975371511159
11.5,0.9412971609826922,0.6473968225418626,0.01402730627275728
11.55,0.9413406088584675,0.6474429164641867,0.0139850254369904
11.600000000000001,0.9413832878142012,0.6474905638982714,0.01394313847379331
11.65,0.9414251709629635,0.647539737459398,0.013901650773123723
11.700000000000001,0.9414662318628074,0.6475904088103669,0.013860567500928568
11.75,0.941506444533198,0.6476425486766288,0.013819893595042498
11.8,0.9415457834712595,0.6476961268619819,0.013779633761374763
11.850000000000001,0.9415842236678333,0.6477511122648274,0.013739792470388161
11.9,0.9416217406233331,0.6478074728949855,0.013700373953873236
11.950000000000001,0.9416583103633916,0.6478651758910572,0.013661382202020308
12,0.9416939094542852,0.647924187538336,0.013622820960791473
12.05,0.9417285150181289,0.6479844732872577,0.013584693729594047
12.100000000000001,0.941762104747829,0.6480459977723848,0.013547003759256495
12.15,0.9417946569217848,0.6481087248319181,0.013509754050307332
12.200000000000001,0.9418261504183287,0.6481726175277301,0.01347294735155683
12.25,0.9418565647298924,0.6482376381659124,0.013436586158980945
12.3,0.9418858799768919,0.6483037483178274,0.01340067271490626
12.350000000000001,0.9419140769213158,0.6483709088416622,0.013365209007494244
12.4,0.9419411369800118,0.648439079904469,0.013330196770522593
12.450000000000001,0.9419670422376564,0.6485082210046899,0.013295637483460791
12.5,0.9419917754593974,0.6485782909951531,0.013261532371836696
12.55,0.9420153201031614,0.6486492481065324,0.013227882407890235
12.600000000000001,0.9420376603316121,0.6487210499712596,0.01319468831150997
12.65,0.9420587810237497,0.6487936536478812,0.013161950551447638
12.700000000000001,0.9420786677861419,0.6488670156458451,0.01312966934680542
12.75,0.9420973069637737,0.6489410919507107,0.013097844668790173
12.8,0.9421146856505068,0.6490158380497666,0.01306647624272832
12.850000000000001,0.9421307916991375,0.6490912089580473,0.013035563550334849
12.9,0.9421456137310419,0.649167159244734,0.01300510583222921
12.950000000000001,0.9421591411453993,0.6492436430599279,0.012975102090690676
13,0.9421713641279827,0.6493206141617827,0.01294555109264528
13.05,0.9421822736595062,0.6493980259439814,0.012916451372875976
13.100000000000001,0.9421918615235192,0.6494758314635458,0.012887801237447495
13.15,0.942200120313838,0.6495539834689605,0.012859598767336925
13.200000000000001,0.9422070434415053,0.6496324344286002,0.012831841822260685
13.25,0.9422126251412667,0.6497111365594415,0.012804528044688436
13.3,0.9422168604775565,0.6497900418560462,0.012777654864034042
13.350000000000001,0.9422197453499843,0.649869102119798,0.012751219501013555
13.4,0.9422212764983106,0.6499482689883768,0.012725218972159918
13.450000000000001,0.9422214515069065,0.6500274939654536,0.012699650094483967
13.5,0.942220268808688,0.6501067284505879,0.012674509490271046
13.55,0.9422177276885156,0.6501859237693107,0.012649793592002473
13.600000000000001,0.9422138282860537,0.6502650312033749,0.01262549864739096
13.65,0.9422085715980822,0.6503440020211535,0.012601620724519
13.700000000000001,0.9422019594802526,0.6504227875081688,0.01257815571706921
13.75,0.9421939946482834,0.6505013389977311,0.012555099349635479
13.8,0.9421846806785864,0.6505796079016687,0.01253244718310391
13.850000000000001,0.9421740220083229,0.6506575457411301,0.012510194620092405
13.9,0.9421620239348792,0.6507351041774367,0.01248833691043793
13.950000000000001,0.9421486926147603,0.6508122350429668,0.012466869156720496
14,0.9421340350618961,0.6508888903720493,0.012445786319812947
14.05,0.9421180591453572,0.650965022431848,0.01242508322444592
14.100000000000001,0.9421007735864756,0.651040583753212,0.012404754564777321
14.15,0.9420821879553696,0.6511155271614771,0.012384794909955931
14.200000000000001,0.942062312666868,0.6511898058071875,0.012365198709669012
14.25,0.9420411589758347,0.6512633731967257,0.01234596029966384
14.3,0.9420187389718898,0.6513361832228216,0.012327073907233553
14.350000000000001,0.9419950655735291,0.6514081901949234,0.01230853365665778
14.4,0.9419701525216397,0.6514793488694042,0.012290333574589009
14.450000000000001,0.9419440143724147,0.6515496144795867,0.012272467595375766
14.5,0.9419166664896642,0.6516189427655585,0.01225492956631423
14.55,0.9418881250365297,0.6516872900037602,0.012237713252820064
14.600000000000001,0.941858406966599,0.6517546130363212,0.012220812343512834
