time,e,omega,d
0,0.942,0.648316538100394,0.02633076200788132
0.05,0.9420236254287241,0.6483837939493311,0.026244591223507606
0.1,0.9420461311472379,0.6484519383653556,0.026159080304862706
0.15000000000000002,0.9420675013015498,0.6485209322912275,0.026074229414262306
0.2,0.942087722549403,0.6485907410856333,0.025990038496698054
0.25,0.9421067777358745,0.6486613180259173,0.025906507251223343
0.30000000000000004,0.9421246536911084,0.6487326239838367,0.02582363511001441
0.35000000000000003,0.9421413372635642,0.6488046177024454,0.025741421276926326
0.4,0.9421568160096371,0.6488772574371219,0.025659864718574635
0.45,0.9421710781978241,0.6489505009742029,0.025578964167602036
0.5,0.9421841128191283,0.6490243056570587,0.025498718124639375
0.55,0.9421959095959609,0.6490986284101596,0.025419124860724993
0.6000000000000001,0.9422064589907394,0.6491734257636305,0.025340182419922797
0.65,0.9422157522140859,0.64924865387811,0.02526188862215079
0.7000000000000001,0.942223781232616,0.6493242685699075,0.025184241066212233
0.75,0.942230538776312,0.6494002253364425,0.025107237133021553
0.8,0.9422360183454711,0.6494764793819567,0.025030873989016857
0.8500000000000001,0.9422402142172182,0.6495529856434846,0.02495514858975072
0.9,0.9422431214515772,0.6496296988170706,0.024880057683650522
0.9500000000000001,0.942244735897093,0.6497065733842182,0.02480559781593955
1,0.9422450541959945,0.6497835636385614,0.02473176533270968
1.05,0.9422440737888919,0.6498606237127402,0.024658556385136532
1.1,0.9422417929190018,0.6499377076054708,0.02458596693382755
1.1500000000000001,0.9422382106358913,0.6500147692087933,0.024513992753293523
1.2000000000000002,0.942233326798735,0.650091762335486,0.024442629436533886
1.25,0.9422271420790778,0.6501686407466288,0.024371872399725974
1.3,0.9422196579630986,0.6502453581793047,0.024301716887008485
1.35,0.9422108767533659,0.6503218683744211,0.024232157975349174
1.4000000000000001,0.9422008015700826,0.65039812510464,0.02416319057948696
1.4500000000000002,0.942189436351812,0.6504740822023992,0.02409480945693847
1.5,0.942176785855682,0.6505496935880112,0.024027009213059187
1.55,0.9421628556570604,0.6506249132978235,0.023959784306149326
1.6,0.9421476521486984,0.6506996955124258,0.023893129052594688
1.6500000000000001,0.9421311825393389,0.6507739945848882,0.023827037632032807
1.7000000000000002,0.942113454851782,0.6508477650690148,0.023761504092534833
1.75,0.94209447792041,0.6509209617475974,0.02369652235579369
1.8,0.942074261388164,0.6509935396606525,0.023632086222309313
1.85,0.9420528157029717,0.6510654541336265,0.023568189376561778
1.9000000000000001,0.9420301521136253,0.6511366608055522,0.023504825392163534
1.9500000000000002,0.9420062826651041,0.6512071156571423,0.023441987736982004
2,0.9419812201933452,0.6512767750388,0.02337966977822419
2.0500000000000003,0.9419549783194574,0.6513455956985336,0.02331786478747506
2.1,0.9419275714433806,0.6514135348097573,0.02325656594568194
2.15,0.9418990147369891,0.6514805499989607,0.0231957663480772
2.2,0.9418693241366404,0.6515465993732314,0.02313545900903216
2.25,0.9418385163351689,0.6516116415476141,0.023075636866835107
2.3000000000000003,0.941806608773329,0.6516756356722859,0.023016292788386968
2.35,0.9417736196306856,0.6517385414595366,0.022957419573808417
2.4000000000000004,0.9417395678159579,0.65180031921053,0.022899009960952555
2.45,0.9417044729568175,0.6518609298418346,0.022841056629817762
2.5,0.9416683553891441,0.6519203349117019,0.02278355220685569
2.5500000000000003,0.941631236145745,0.6519784966460772,0.022726489269169783
2.6,0.9415931369445402,0.6520353779643249,0.022669860348600124
2.6500000000000004,0.9415540801762193,0.6520909425046488,0.022613657935690874
2.7,0.9415140888913759,0.6521451546491916,0.022557874483537015
2.75,0.9414731867871253,0.652197979548794,0.022502502411507475
2.8000000000000003,0.941431398193212,0.652249383147396,0.022447534108842333
2.85,0.9413887480576135,0.6522993322060618,0.02239296193812204
2.9000000000000004,0.9413452619316505,0.6523477943266096,0.022338778238607287
2.95,0.9413009659546074,0.6523947379748289,0.022284975329448422
3,0.941255886802654,0.6524401324470954,0.022231545513721872
3.0500000000000003,0.9412100517879766,0.6524839480709537,0.022178481077908322
3.1,0.9411634887123626,0.6525261560335771,0.022125774298988727
3.1500000000000004,0.9411162258998507,0.6525667284740012,0.022073417445262863
3.2,0.9410682921824707,0.6526056385103526,0.022021402778899916
3.25,0.9410197168782645,0.6526428602543911,0.02196972255847359
3.3000000000000003,0.940970529772744,0.6526783688312207,0.021918369041272496
3.35,0.9409207610999663,0.6527121403985302,0.0218673344854858
3.4000000000000004,0.9408704415232251,0.6527441521652496,0.021816611152268572
3.45,0.9408196021153632,0.6527743824096024,0.02176619130769191
3.5,0.9407682743387223,0.6528028104965379,0.02171606722458123
3.5500000000000003,0.9407164900247428,0.6528294168945253,0.021666231184247004
3.6,0.9406642813532304,0.6528541831916919,0.021616675478112683
3.6500000000000004,0.9406116808313034,0.6528770921112822,0.02156739240924452
3.7,0.9405587212720364,0.6528981275264276,0.02151837429378881
3.75,0.9405054357728166,0.6529172744742017,0.021469613462322037
3.8000000000000003,0.9404518576934299,0.6529345191689465,0.021421102261119946
3.85,0.9403980206338919,0.6529498490148533,0.02137283305335163
3.9000000000000004,0.9403439584120434,0.652963252617778,0.02132479822020521
3.95,0.940289705040926,0.652974719796277,0.021276990161951774
4,0.940235294705957,0.6529842415918465,0.021229401298954464
4.05,0.9401807617419219,0.6529918102783487,0.02118202407262994
4.1000000000000005,0.9401261406098018,0.6529974193706097,0.021134850946369403
4.15,0.9400714658734574,0.653001063632177,0.02108787440642669
4.2,0.9400167721761848,0.6530027390822184,0.021041086962780987
4.25,0.9399620942171675,0.6530024430015509,0.020994481149981817
4.3,0.9399074667278388,0.6530001739377881,0.020948049527984028
4.3500000000000005,0.9398529244481797,0.6529959317095924,0.020901784682980568
4.4,0.9397985021029688,0.6529897174100197,0.020855679228240793
4.45,0.9397442343780057,0.6529815334089495,0.020809725804962143
4.5,0.9396901558963281,0.6529713833545879,0.02076391708314286
4.55,0.9396363011944433,0.6529592721740373,0.02071824576248346
4.6000000000000005,0.9395827046985941,0.6529452060729213,0.020672704573324506
4.65,0.9395294007010799,0.6529291925340641,0.020627286277628106
4.7,0.9394764233366536,0.6529112403152134,0.02058198367001053
4.75,0.9394238065590143,0.6528913594458051,0.02053678957883296
4.800000000000001,0.9393715841174174,0.6528695612227652,0.02049169686735735
4.8500000000000005,0.9393197895334212,0.6528458582053477,0.020446698434974108
4.9,0.9392684560777911,0.6528202642090075,0.02040178721850796
4.95,0.9392176167475806,0.652792794298306,0.020356956193608267
5,0.9391673042434109,0.6527634647788539,0.02031219837622952
5.050000000000001,0.9391175509469665,0.6527322931882925,0.020267506824207655
5.1000000000000005,0.9390683888987285,0.652699298286316,0.020222874638937263
5.15,0.9390198497759626,0.6526645000437419,0.0201782949671546
5.2,0.9389719648709834,0.6526279196306346,0.020133761002830715
5.25,0.9389247650697109,0.6525895794034903,0.020089265989178758
5.300000000000001,0.9388782808305393,0.6525495028914908,0.020044803220778982
5.3500000000000005,0.9388325421635361,0.6525077147818387,0.020000366045824666
5.4,0.9387875786099874,0.6524642409041822,0.019955947868491468
5.45,0.9387434192223079,0.6524191082141451,0.019911542151432496
5.5,0.9387000925294396,0.652372344806071,0.01986714242021601
5.550000000000001,0.9386576265537954,0.652323979818637,0.01982274226171309
5.6000000000000005,0.9386160487713527,0.6522740434621015,0.019778335329457025
5.65,0.938575386086089,0.652222567013731,0.019733915347513502
5.7,0.9385356648557128,0.6521695827177882,0.019689476108165207
5.75,0.9384969107569149,0.6521151239718898,0.019645011489796367
5.800000000000001,0.9384591488949445,0.6520592250724584,0.019600515444648647
5.8500000000000005,0.9384224037408694,0.6520019212804113,0.019555982007947628
5.9,0.9383866991111742,0.6519432488037268,0.01951140530208189
5.95,0.9383520581559425,0.6518832447659934,0.019466779539912542
6,0.9383185033438138,0.6518219471811784,0.01942209902863459
6.050000000000001,0.9382860564474028,0.6517593949277795,0.019377358173764712
6.1000000000000005,0.9382547385292554,0.6516956277223508,0.019332551483235757
6.15,0.9382245699283547,0.6516306860924173,0.01928767357159262
6.2,0.9381955702471777,0.651564611348805,0.01924271916428448
6.25,0.9381677583393152,0.6514974455574171,0.01919768310204714
6.300000000000001,0.9381411522976583,0.6514292315104809,0.019152560345368955
6.3500000000000005,0.93811576944316,0.6513600126972963,0.019107345979033272
6.4,0.9380916263141764,0.651289833274512,0.019062035216729944
6.45,0.9380687386567078,0.651218738036951,0.01901662340557674
6.5,0.9380471214139817,0.6511467723842431,0.018971106031278644
6.550000000000001,0.9380267887183158,0.6510739822919914,0.018925478722555095
6.6000000000000005,0.9380077538829314,0.651000414280864,0.018879737255889886
6.65,0.9379900293939093,0.6509261153839725,0.018833877560515282
6.7,0.9379736269031629,0.6508511331151345,0.01878789572322419
6.75,0.9379585572219435,0.6507755154367028,0.018741787993218295
6.800000000000001,0.9379448303149355,0.650699310727123,0.018695550786955915
6.8500000000000005,0.93793245529495,0.6506225677482841,0.018649180692985493
6.9,0.9379214404182169,0.6505453356126888,0.018602674476753425
6.95,0.9379117930802741,0.6504676637504753,0.018556029085375562
7,0.9379035198124493,0.650389601876316,0.01850924165236118
7.050000000000001,0.9378966262789356,0.6503111999562244,0.01846230950227834
7.1000000000000005,0.937891117274454,0.6502325081742956,0.018415230155349224
7.15,0.937886996722502,0.6501535768994084,0.01836800133196426
7.2,0.9378842676741821,0.6500744566519172,0.01832062095710351
7.25,0.9378829323076062,0.6499951980703579,0.018273087164653996
7.300000000000001,0.9378829919278718,0.6499158518781962,0.018225398301611573
7.3500000000000005,0.9378844469676021,0.649836468850642,0.018177552932156046
7.4,0.9378872969880468,0.6497570997815552,0.018129549841588273
7.45,0.9378915406807358,0.649677795450469,0.018081388040118156
7.5,0.9378971758696779,0.6495986065897508,0.018033066766492526
7.550000000000001,0.9379041995141011,0.6495195838519273,0.01798458549145214
7.6000000000000005,0.937912607711723,0.6494407777771954,0.01793594392100714
7.65,0.9379223957025468,0.6493622387611389,0.01788714199952066
7.7,0.9379335578731728,0.6492840170226742,0.01783817991259039
7.75,0.9379460877616196,0.6492061625722465,0.01778905808971831
7.800000000000001,0.9379599780626429,0.6491287251802926,0.017739777206759004
7.8500000000000005,0.9379752206335485,0.6490517543459937,0.017690338188137505
7.9,0.9379918065004854,0.6489752992663335,0.01764074220882757
7.95,0.9380097258652134,0.6488994088054826,0.017590990696082203
8,0.9380289681123349,0.6488241314645233,0.017541085330908198
8.05,0.9380495218169825,0.6487495153515338,0.017491028049277126
8.1,0.9380713747529511,0.6486756081520465,0.01744082104306558
8.15,0.9380945139012677,0.648602457099896,0.017390466760717992
8.200000000000001,0.9381189254591871,0.6485301089484706,0.017339967907625695
8.25,0.9381445948496047,0.6484586099423847,0.017289327446216626
8.3,0.9381715067308782,0.6483880057895792,0.01723854859575027
8.35,0.9381996450070452,0.6483183416338694,0.01718763483181339
8.4,0.9382289928384316,0.648249662027948,0.01713658988551212
8.450000000000001,0.9382595326526354,0.648182010906857,0.017085417742357046
8.5,0.9382912461558824,0.6481154315619385,0.017034122640838156
8.55,0.9383241143447405,0.6480499666152751,0.01698270907068715
8.6,0.9383581175181817,0.647985657994631,0.016931181770825338
8.65,0.9383932352899873,0.6479225469089008,0.016879545726995765
8.700000000000001,0.9384294466014821,0.6478606738240769,0.016827806169078894
8.75,0.93846672973459,0.6478000784397441,0.016775968568091732
8.8,0.9385050623252026,0.6477407996661066,0.016724038632870905
8.85,0.9385444213768493,0.6476828756015597,0.01667202230644083
8.9,0.9385847832746628,0.647626343510807,0.01661992576206857
8.950000000000001,0.9386261237996268,0.6475712398035363,0.01656775539900784
9,0.9386684181431023,0.6475176000136552,0.016515517837934875
9.05,0.9387116409216185,0.6474654587790949,0.016463219916079797
9.1,0.9387557661919235,0.6474148498221879,0.01641086868205748
9.15,0.938800767466283,0.6473658059306223,0.016358471390402578
9.200000000000001,0.9388466177280221,0.6473183589389808,0.016306035495813994
9.25,0.9388932894472981,0.6472725397108658,0.0162535686471145
9.3,0.9389407545970996,0.6472283781216173,0.01620107868093188
9.35,0.9389889846694605,0.6471859030416248,0.01614857361510856
9.4,0.9390379506918834,0.6471451423202403,0.016096061641847036
9.450000000000001,0.9390876232439651,0.6471061227702923,0.016043551120599048
9.5,0.939137972474211,0.6470688701532055,0.01599105057070701
9.55,0.9391889681170401,0.6470334091647295,0.01593856866380656
9.600000000000001,0.9392405795099634,0.6469997634212786,0.015886114215999607
9.65,0.9392927756109358,0.6469679554468843,0.015833696179807764
9.700000000000001,0.9393455250158693,0.646938006660765,0.01578132363591641
9.75,0.9393987959763038,0.6469099373655115,0.015729005784720102
9.8,0.9394525564172255,0.6468837667358949,0.01567675193768042
9.850000000000001,0.939506773955028,0.6468595128082937,0.01562457150850769
9.9,0.9395614159156085,0.6468371924707454,0.01557247400417845
9.950000000000001,0.9396164493525921,0.646816821453622,0.015520469015800757
10,0.9396718410656777,0.6467984143209313,0.01546856620933984
10.05,0.9397275576190985,0.6467819844622466,0.015416775316216816
10.100000000000001,0.9397835653601917,0.6467675440852615,0.015365106123793531
10.15,0.939839830438068,0.6467551042089779,0.015313568465756674
10.200000000000001,0.9398963188223786,0.6467446746575193,0.015262172212414746
10.25,0.9399529963221693,0.6467362640545786,0.015210927260921448
10.3,0.9400098286048175,0.6467298798184952,0.015159843525439334
10.350000000000001,0.9400667812150446,0.6467255281579631,0.015108930927257685
10.4,0.9401238195939982,0.6467232140683739,0.01505819938487865
10.450000000000001,0.9401809090983969,0.6467229413287887,0.015007658804085803
10.5,0.9402380150197325,0.6467247124995463,0.014957319068009348
10.55,0.9402951026035212,0.6467285289205011,0.014907190027202172
10.600000000000001,0.9403521370685994,0.6467343907098965,0.014857281489740987
10.65,0.9404090836264563,0.646742296763869,0.014807603211366845
10.700000000000001,0.9404659075005968,0.6467522447565863,0.014758164885679126
10.75,0.94052257394593,0.6467642311410179,0.014708976134397134
10.8,0.9405790482681731,0.6467782511503368,0.01466004649770328
10.850000000000001,0.9406352958432679,0.6467942987999538,0.014611385424681787
10.9,0.9406912821368003,0.6468123668901822,0.01456300226386653
10.950000000000001,0.9407469727234172,0.6468324470095334,0.014514906253911618
11,0.9408023333062343,0.6468545295386413,0.014467106514398096
11.05,0.9408573297362257,0.646878603654817,0.014419612036789715
11.100000000000001,0.9409119280315918,0.6469046573372285,0.014372431675550825
11.15,0.9409660943970939,0.646932677372709,0.014325574139438794
11.200000000000001,0.9410197952433513,0.6469626493621895,0.014279047982983325
11.25,0.9410729972060936,0.6469945577277547,0.014232861598164536
11.3,0.9411256671653572,0.6470283857203212,0.014187023206301472
11.350000000000001,0.9411777722646223,0.6470641154279354,0.014141540850162254
11.4,0.9412292799298805,0.64710172778469,0.01409642238630662
11.450000000000001,0.9412801578886246,0.6471412025802559,0.014051675477671369
11.5,0.9413303741887544,0.647182518470028,0.014007307586408708
11.55,0.9413798972173879,0.6472256529858819,0.013963325966986875
11.600000000000001,0.9414286957195711,0.6472705825475389,0.013919737659562321
11.65,0.9414767388168774,0.6473172824745361,0.01387654948363187
11.700000000000001,0.9415239960258875,0.6473657269987988,0.013833768031972952
11.75,0.9415704372765409,0.6474158892778111,0.013791399664879531
11.8,0.9416160329303513,0.6474677414083819,0.01374945050470066
11.850000000000001,0.9416607537984745,0.6475212544410011,0.013707926430688166
11.9,0.9417045711596205,0.6475763983947838,0.013666833074159392
11.950000000000001,0.9417474567778019,0.6476331422729956,0.013626175813980266
12,0.9417893829199061,0.6476914540791561,0.013585959772373538
12.05,0.9418303223730823,0.6477513008337147,0.013546189811056264
12.100000000000001,0.941870248461936,0.647812648591294,0.013506870527710158
12.15,0.9419091350655168,0.647875462458494,0.013468006252787719
12.200000000000001,0.9419469566340924,0.6479397066122541,0.013429601046656525
12.25,0.9419836882056972,0.6480053443187612,0.013391658697083374
12.3,0.9420193054224445,0.6480723379529043,0.013354182717059418
12.350000000000001,0.9420537845465939,0.6481406490182626,0.013317176342966775
12.4,0.9420871024763602,0.6482102381676245,0.013280642533086456
12.450000000000001,0.9421192367614555,0.6482810652240266,0.013244583966446873
12.5,0.9421501656183522,0.6483530892023074,0.013209003042011606
12.55,0.9421798679452569,0.6484262683311656,0.013173901878204353
12.600000000000001,0.9422083233367834,0.6485005600757158,0.01313928231276851
12.65,0.9422355120983135,0.6485759211605328,0.013105145902958259
12.700000000000001,0.9422614152600355,0.6486523075931737,0.013071493926057236
12.75,0.9422860145906488,0.6487296746881711,0.013038327380220495
12.8,0.9423092926107227,0.6488079770914842,0.013005646985634797
12.850000000000001,0.9423312326056982,0.6488871688054006,0.012973453185991697
12.9,0.9423518186385231,0.6489672032138767,0.012941746150267344
12.950000000000001,0.9423710355619073,0.6490480331083063,0.012910525774802397
13,0.9423888690301876,0.6491296107137057,0.012879791685674944
13.05,0.9424053055107918,0.6492118877153057,0.012849543241358745
13.100000000000001,0.9424203322952895,0.649294815285536,0.012819779535658682
13.15,0.9424339375100194,0.6493783441113916,0.012790499400914878
13.200000000000001,0.9424461101262819,0.649462424422169,0.012761701411466314
13.25,0.9424568399700866,0.649547006017559,0.012733383887364572
13.3,0.9424661177314421,0.6496320382960823,0.012705544898327802
13.350000000000001,0.9424739349731805,0.6497174702838575,0.01267818226792458
13.4,0.942480284139303,0.6498032506636835,0.012651293577977105
13.450000000000001,0.9424851585628379,0.6498893278044269,0.012624876173172712
13.5,0.942488552473201,0.649975649790699,0.012598927165872483
13.55,0.9424904610030476,0.6500621644528056,0.012573443441105293
13.600000000000001,0.9424908801946058,0.6501488193969598,0.01254842166173563
13.65,0.9424898070054839,0.6502355620357386,0.01252385827379298
13.700000000000001,0.9424872393139396,0.6503223396187723,0.01249974951195065
13.75,0.9424831759236043,0.6504090992636473,0.012476091405141547
13.8,0.9424776165676517,0.650495787987012,0.012452879782298377
13.850000000000001,0.942470561912404,0.6505823527358662,0.01243011027820559
13.9,0.942462013560367,0.6506687404190195,0.012407778339450302
13.950000000000001,0.9424519740526845,0.6507548979387049,0.012385879230459416
14,0.9424404468710075,0.6508407722223287,0.012364408039610055
14.05,0.9424274364387674,0.6509263102543418,0.012343359685400552
14.100000000000001,0.9424129481218508,0.6510114591082171,0.012322728922669167
14.15,0.9423969882286641,0.651096165978515,0.012302510348847818
14.200000000000001,0.9423795640095867,0.6511803782130215,0.012282698410238255
14.25,0.9423606836558044,0.6512640433449415,0.01226328740829812
14.3,0.9423403562975177,0.6513471091251308,0.012244271505924675
14.350000000000001,0.9423185920015221,0.6514295235543514,0.012225644733723917
14.4,0.9422954017681542,0.6515112349155285,0.012207400996253313
14.450000000000001,0.9422707975275997,0.6515921918059998,0.01218953407822638
14.5,0.9422447921355622,0.6516723431697299,0.012172037650667775
14.55,0.9422173993682862,0.651751638329482,0.012154905277007752
14.600000000000001,0.9421886339169356,0.6518300270189225,0.0121381304191053
