time,e,omega,d
0,0.942,0.6482532304803152,0.02633076200788132
0.05,0.9420204503570782,0.648290328955912,0.02624547723849604
0.1,0.9420403173944722,0.6483278295064581,0.026160696392781534
0.15000000000000002,0.9420595937635063,0.6483657216237373,0.026076418989327475
0.2,0.9420782731774247,0.6484039960007032,0.02599264455613099
0.25,0.9420963474249509,0.648442640097792,0.025909372405279348
0.30000000000000004,0.942113810009091,0.6484816434301724,0.02582660188886291
0.35000000000000003,0.9421306543088476,0.6485209949477948,0.025744332277708212
0.4,0.9421468738928771,0.648560683473643,0.025662562780517626
0.45,0.9421624625204971,0.6486006977065358,0.02558129254427886
0.5,0.9421774141442814,0.6486410262247491,0.02550052065433798
0.55,0.9421917229123409,0.6486816574893544,0.025420246134558257
0.6000000000000001,0.9422053831581384,0.6487225798546147,0.025340467951343117
0.65,0.9422183894424788,0.6487637815484607,0.025261185001507095
0.7000000000000001,0.9422307365120443,0.6488052507018266,0.025182396126132496
0.75,0.942242419317671,0.6488469753421946,0.025104100105763725
0.8,0.9422534330177592,0.6488889433964702,0.025026295660295902
0.8500000000000001,0.9422637729789046,0.6489311426953722,0.024948981449735928
0.9,0.9422734347777967,0.6489735609770685,0.02487215607457786
0.9500000000000001,0.9422824142030669,0.6490161858908492,0.024795818076204897
1,0.9422907072570756,0.6490590050008332,0.024719965937319777
1.05,0.9422983101576373,0.6491020057897091,0.02464459808240314
1.1,0.9423052193396304,0.6491451756623838,0.024569712878182874
1.1500000000000001,0.9423114314567507,0.6491885019501378,0.02449530863419127
1.2000000000000002,0.9423169433829216,0.6492319719141926,0.024421383603269498
1.25,0.9423217522137456,0.6492755727495271,0.024347935982124064
1.3,0.9423258552679628,0.6493192915888948,0.024274963911930184
1.35,0.9423292500887751,0.6493631155067211,0.024202465478940335
1.4000000000000001,0.9423319344451139,0.6494070315230491,0.02413043871511841
1.4500000000000002,0.9423339063328395,0.6494510266075152,0.024058881598796822
1.5,0.942335163975873,0.6494950876833483,0.02398779205535518
1.55,0.9423357058272568,0.6495392016313948,0.02391716795791972
1.6,0.9423355305701442,0.6495833552941646,0.02384700712808275
1.6500000000000001,0.942334637118719,0.6496275354798989,0.023777307336641317
1.7000000000000002,0.9423330246190414,0.6496717289666593,0.023708066304354285
1.75,0.9423306924498213,0.6497159225064345,0.02363928170271698
1.8,0.9423276402231177,0.6497601028292668,0.02357095115475258
1.85,0.942323867784965,0.6498042566473948,0.023503072235819506
1.9000000000000001,0.9423193752159235,0.649848370659412,0.02343564247443385
1.9500000000000002,0.942314162831554,0.6498924315544401,0.02336865935310609
2,0.9423082311828177,0.6499364260163162,0.0233021203091912
2.0500000000000003,0.9423015810563983,0.6499803407277918,0.02323602273575136
2.1,0.9422942134749472,0.6500241623747436,0.02317036398243038
2.15,0.9422861296972521,0.650067877650394,0.02310514135633895
2.2,0.9422773312183257,0.65011147325954,0.023040352122949977
2.25,0.9422678197694175,0.6501549359227902,0.022975993507003047
2.3000000000000003,0.9422575973179452,0.6501982523808083,0.022912062693417258
2.35,0.9422466660673484,0.6502414093985606,0.02284855682821152
2.4000000000000004,0.9422350284568605,0.6502843937695688,0.022785473019431464
2.45,0.9422226871612022,0.6503271923201648,0.02272280833808228
2.5,0.9422096450901939,0.6503697919137461,0.022660559819066433
2.5500000000000003,0.9421959053882869,0.6504121794550327,0.02259872446212561
2.6,0.9421814714340152,0.6504543418943224,0.022537299232786044
2.6500000000000004,0.9421663468393641,0.6504962662317422,0.022476281063306357
2.7,0.9421505354490591,0.6505379395214987,0.0224156668536272
2.75,0.9421340413397724,0.6505793488761215,0.022355453472321905
2.8000000000000003,0.9421168688192482,0.6506204814706996,0.02229563775754732
2.85,0.9420990224253453,0.6506613245471132,0.022236216517994147
2.9000000000000004,0.9420805069250001,0.6507018654182539,0.022177186533835984
2.95,0.942061327313105,0.6507420914722352,0.022118544557676423
3,0.9420414888113067,0.6507819901765919,0.02206028731549334
3.0500000000000003,0.9420209968667221,0.6508215490824666,0.022002411507579887
3.1,0.9419998571505733,0.650860755828782,0.02194491380948134
3.1500000000000004,0.9419780755567393,0.650899598146397,0.021887790872927238
3.2,0.9419556582002278,0.6509380638622462,0.02183103932675809
3.25,0.941932611415565,0.6509761409034617,0.021774655777846152
3.3000000000000003,0.9419089417551045,0.6510138173014746,0.021718636812009556
3.35,0.9418846559872555,0.6510510811960954,0.021662978994919223
3.4000000000000004,0.941859761094629,0.6510879208395735,0.0216076788729981
3.45,0.9418342642721067,0.6511243246006303,0.021552732974312056
3.5,0.9418081729248268,0.6511602809684701,0.021498137809451996
3.5500000000000003,0.9417814946660924,0.6511957785567628,0.021443889872406693
3.6,0.9417542373152001,0.6512308061075988,0.021389985641425843
3.6500000000000004,0.9417264088951902,0.6512653524954157,0.021336421579872922
3.7,0.941698017630518,0.6512994067308936,0.021283194137067415
3.75,0.9416690719446488,0.6513329579648182,0.021230299749116024
3.8000000000000003,0.9416395804575748,0.6513659954919111,0.021177734839732495
3.85,0.941609551983257,0.6513985087546252,0.021125495821045698
3.9000000000000004,0.9415789955269893,0.6514304873469033,0.02107357909439565
3.95,0.9415479202826895,0.6514619210179003,0.02102198105111722
4,0.9415163356301147,0.6514927996756649,0.020970698073311193
4.05,0.9414842511320041,0.6515231133907821,0.0209197265346025
4.1000000000000005,0.9414516765311484,0.6515528523999734,0.020869062800885407
4.15,0.9414186217473877,0.6515820071096536,0.020818703231055412
4.2,0.9413850968745378,0.6516105680994441,0.020768644177727787
4.25,0.9413511121772472,0.651638526125638,0.020718881987942566
4.3,0.941316678087784,0.6516658721246202,0.020669413003855892
4.3500000000000005,0.9412818052027554,0.6516925972162373,0.02062023356341768
4.4,0.9412465042797595,0.6517186927071168,0.020571340001035474
4.45,0.9412107862339716,0.6517441500939369,0.020522728648224572
4.5,0.9411746621346644,0.6517689610666403,0.02047439583424433
4.55,0.9411381432016657,0.6517931175115961,0.020426337886720745
4.6000000000000005,0.9411012408017521,0.6518166115147045,0.020378551132255337
4.65,0.9410639664449824,0.6518394353644443,0.020331031897020443
4.7,0.9410263317809694,0.6518615815548631,0.020283776507341
4.75,0.9409883485950938,0.6518830427885056,0.02023678129026295
4.800000000000001,0.9409500288046603,0.6519038119792827,0.020190042574108495
4.8500000000000005,0.9409113844549959,0.6519238822552763,0.020143556689018294
4.9,0.9408724277154956,0.6519432469614808,0.02009731996748088
4.95,0.9408331708756125,0.6519618996624786,0.02005132874484947
5,0.9407936263407966,0.6519798341450508,0.020005579359846534
5.050000000000001,0.9407538066283825,0.6519970444207168,0.019960068155056226
5.1000000000000005,0.9407137243634291,0.6520135247282075,0.019914791477405158
5.15,0.94067339227451,0.6520292695358663,0.019869745678631708
5.2,0.9406328231894583,0.6520442735439782,0.01982492711574432
5.25,0.9405920300310677,0.6520585316870267,0.01978033215146903
5.300000000000001,0.9405510258127504,0.6520720391358752,0.019735957154686692
5.3500000000000005,0.9405098236341526,0.6520847912998738,0.019691798500860308
5.4,0.940468436676732,0.6520967838288882,0.019647852572452804
5.45,0.9404268781992964,0.6521080126152511,0.01960411575933579
5.5,0.9403851615335068,0.6521184737956346,0.01956058445918965
5.550000000000001,0.9403433000793457,0.6521281637528414,0.019517255077895503
5.6000000000000005,0.9403013073005523,0.6521370791175158,0.019474124029919517
5.65,0.9402591967200282,0.6521452167697706,0.019431187738690032
5.7,0.9402169819152127,0.652152573840731,0.019388442636967974
5.75,0.9401746765134317,0.6521591477139943,0.019345885167211214
5.800000000000001,0.9401322941872212,0.6521649360270029,0.019303511781933205
5.8500000000000005,0.9400898486496266,0.6521699366723305,0.019261318944056607
5.9,0.9400473536494821,0.6521741477988819,0.019219303127262336
5.95,0.9400048229666679,0.6521775678130023,0.01917746081633466
6,0.9399622704073525,0.6521801953794986,0.01913578850750285
6.050000000000001,0.9399197097992169,0.652182029422569,0.01909428270877999
6.1000000000000005,0.9398771549866665,0.6521830691266424,0.019052939940299496
6.15,0.93983461982603,0.6521833139371248,0.0190117567346499
6.2,0.9397921181807497,0.6521827635610542,0.01897072963720852
6.25,0.9397496639165624,0.6521814179676598,0.01892985520647456
6.300000000000001,0.9397072708966757,0.6521792773888296,0.018889130014402185
6.3500000000000005,0.9396649529769391,0.6521763423194814,0.01884855064673423
6.4,0.9396227240010147,0.6521726135178386,0.018808113703336987
6.45,0.939580597795547,0.6521680920056109,0.018767815798536792
6.5,0.939538588165335,0.6521627790680774,0.018727653561458796
6.550000000000001,0.9394967088885083,0.6521566762540736,0.018687623636368656
6.6000000000000005,0.9394549737117106,0.6521497853758811,0.018647722683017537
6.65,0.9394133963452891,0.6521421085090188,0.018607947376991067
6.7,0.9393719904584963,0.6521336479919372,0.018568294410062726
6.75,0.9393307696747032,0.6521244064256133,0.018528760490552198
6.800000000000001,0.9392897475666263,0.6521143866730488,0.018489342343689222
6.8500000000000005,0.9392489376515717,0.6521035918586671,0.018450036711983375
6.9,0.939208353386697,0.6520920253676143,0.018410840355600325
6.95,0.9391680081642932,0.65207969084496,0.018371750052744995
7,0.9391279153070898,0.6520665921947991,0.0183327626000521
7.050000000000001,0.9390880880635829,0.6520527335792563,0.018293874812984487
7.1000000000000005,0.9390485396033902,0.6520381194173905,0.018255083526239647
7.15,0.9390092830126339,0.652022754384002,0.018216385594164886
7.2,0.9389703312893541,0.6520066434083412,0.018177777891181468
7.25,0.9389316973389533,0.651989791672719,0.018139257312218084
7.300000000000001,0.9388933939696754,0.6519722046110199,0.018100820773154037
7.3500000000000005,0.9388554338881202,0.6519538879071191,0.01806246521127237
7.4,0.9388178296947959,0.6519348474932006,0.018024187585723314
7.45,0.93878059387971,0.6519150895479824,0.017985984877998268
7.5,0.9387437388180027,0.6518946204948421,0.017947854092414544
7.550000000000001,0.9387072767656227,0.6518734469998516,0.01790979225661114
7.6000000000000005,0.9386712198550476,0.6518515759697149,0.017871796422055695
7.65,0.938635580091052,0.6518290145496131,0.017833863664562823
7.7,0.9386003693465214,0.6518057701209575,0.017795991084823857
7.75,0.9385655993583193,0.6517818502990494,0.017758175808948288
7.800000000000001,0.9385312817232033,0.6517572629306502,0.017720414989016813
7.8500000000000005,0.9384974278937955,0.6517320160914606,0.017682705803646146
7.9,0.9384640491746078,0.6517061180835115,0.017645045458565572
7.95,0.9384311567181228,0.6516795774324673,0.01760743118720521
8,0.938398761520934,0.6516524028848407,0.01756986025129603
8.05,0.9383668744199439,0.6516246034051242,0.017532329941481493
8.1,0.9383355060886235,0.6515961881728353,0.017494837577940715
8.15,0.9383046670333348,0.6515671665794798,0.017457380511023052
8.200000000000001,0.9382743675897155,0.6515375482254326,0.017419956121893947
8.25,0.93824461791913,0.6515073429167391,0.01738256182319185
8.3,0.9382154280051861,0.6514765606618355,0.01734519505969596
8.35,0.9381868076503196,0.6514452116681944,0.017307853309004594
8.4,0.9381587664724468,0.6514133063388917,0.017270534082223857
8.450000000000001,0.9381313139016885,0.6513808552691004,0.01723323492466631
8.5,0.9381044591771636,0.651347869242512,0.01719595341655934
8.55,0.9380782113438562,0.6513143592276842,0.017158687173762774
8.6,0.938052579249555,0.651280336374322,0.017121433848495453
8.65,0.9380275715418674,0.6512458120094886,0.017084191130070217
8.700000000000001,0.9380031966653098,0.6512107976337508,0.017046956745636926
8.75,0.9379794628584724,0.6511753049172605,0.01700972846093301
8.8,0.9379563781512624,0.6511393456957723,0.016972504081041003
8.85,0.9379339503622246,0.6511029319666012,0.016935281451152574
8.9,0.9379121870959414,0.6510660758845211,0.016898058457338404
8.950000000000001,0.9378910957405112,0.6510287897576059,0.016860833027323448
9,0.9378706834651092,0.6509910860430154,0.016823603131266792
9.05,0.9378509572176258,0.650952977342728,0.016786366782545595
9.1,0.9378319237223904,0.6509144763992224,0.016749122038542393
9.15,0.9378135894779741,0.650875596091109,0.016711867001435045
9.200000000000001,0.9377959607550769,0.6508363494287143,0.016674599818988677
9.25,0.9377790435944978,0.6507967495496201,0.01663731868534882
9.3,0.937762843805188,0.650756809714159,0.016600021841835014
9.35,0.9377473669623891,0.6507165433008684,0.0165627075777341
9.4,0.9377326184058544,0.6506759638019051,0.016525374231092373
9.450000000000001,0.9377186032381561,0.6506350848184225,0.016488020189505848
9.5,0.937705326323077,0.6505939200559127,0.016450643890907723
9.55,0.937692792284088,0.6505524833195149,0.01641324382435226
9.600000000000001,0.93768100550291,0.6505107885092934,0.016375818530794183
9.65,0.9376699701181627,0.6504688496154852,0.016338366603862706
9.700000000000001,0.937659690024098,0.6504266807137208,0.016300886690629388
9.75,0.9376501688694203,0.6503842959602212,0.016263377492368784
9.8,0.937641410056192,0.6503417095869701,0.016225837765311085
9.850000000000001,0.9376334167388245,0.6502989358968655,0.016188266321385782
9.9,0.9376261918231563,0.6502559892588536,0.01615066202895544
9.950000000000001,0.937619737965616,0.650212884103044,0.01611302381353866
10,0.9376140575724706,0.6501696349158107,0.016075350658521264
10.05,0.9376091527991598,0.6501262562348809,0.016037641605854767
10.100000000000001,0.9376050255497161,0.6500827626444114,0.01599989575674124
10.15,0.937601677476269,0.6500391687700575,0.015962112272303503
10.200000000000001,0.9375991099786345,0.6499954892740337,0.015924290374239876
10.25,0.9375973242039891,0.6499517388501703,0.01588642934546237
10.3,0.9375963210466285,0.6499079322189665,0.01584852853071745
10.350000000000001,0.9375961011478093,0.6498640841226415,0.015810587337188455
10.4,0.937596664895675,0.6498202093201889,0.015772605235078743
10.450000000000001,0.9375980124252641,0.6497763225824302,0.01573458175817453
10.5,0.9376001436186027,0.6497324386870755,0.015696516504386655
10.55,0.9376030581048773,0.6496885724137893,0.015658409136270236
10.600000000000001,0.93760675526069015,0.6496447385392641,0.015620259381521394
10.65,0.9376112342103959,0.6496009518323056,0.015582067033450095
10.700000000000001,0.9376164938265191,0.6495572270489274,0.015543831951428314
10.75,0.9376225327302504,0.6495135789274601,0.015505554061312566
10.8,0.9376293492920245,0.6494700221836761,0.01546723335584002
10.850000000000001,0.9376369416321745,0.6494265715059305,0.015428869894997331
10.9,0.9376453076216665,0.6493832415503202,0.01539046380636144
10.950000000000001,0.9376544448829104,0.649340046935864,0.015352015285411396
11,0.9376643507906484,0.6492970022397037,0.015313524595810635
11.05,0.9376750224729188,0.6492541219923291,0.015274992069658771
11.100000000000001,0.9376864568120966,0.6492114206728276,0.015236418107712306
11.15,0.937698650446007,0.6491689127041596,0.015197803179573446
11.200000000000001,0.9377115997691149,0.6491266124484634,0.015159147823846395
11.25,0.9377253009337864,0.6490845342023877,0.01512045264826048
11.3,0.9377397498516222,0.6490426921924557,0.015081718329759398
11.350000000000001,0.9377549421948644,0.649001100570462,0.015042945614556059
11.4,0.9377708733978725,0.648959773408902,0.015004135318152409
11.450000000000001,0.9377875386586699,0.648918724696437,0.014965288325323662
11.5,0.9378049329405607,0.648877968333395,0.014926405590066482
11.55,0.9378230509738124,0.64883751812731,0.014887488135510545
11.600000000000001,0.9378418872574084,0.6487973877884996,0.014848537053793062
11.65,0.9378614360608661,0.6487575909256819,0.014809553505895873
11.700000000000001,0.9378816914261207,0.6487181410416352,0.014770538721444643
11.75,0.9379026471694742,0.6486790515288993,0.014731493998469822
11.8,0.9379242968836085,0.6486403356655205,0.014692420703129082
11.850000000000001,0.9379466339396604,0.6486020066108412,0.014653320269390879
11.9,0.9379696514893606,0.6485640774013361,0.014614194198678935
11.950000000000001,0.9379933424672331,0.648526560946494,0.014575044059477339
12,0.9380176995928543,0.6484894700247483,0.01453587148689619
12.05,0.9380427153731731,0.6484528172794576,0.01449667818219753
12.100000000000001,0.9380683821048881,0.6484166152149332,0.014457465912281484
12.15,0.9380946918768832,0.6483808761925208,0.014418236509132572
12.200000000000001,0.9381216365727204,0.6483456124267318,0.014378991869226077
12.25,0.9381492078731868,0.648310835981428,0.014339733952894545
12.3,0.9381773972588985,0.6482765587660602,0.014300464783654368
12.350000000000001,0.9382061960129565,0.6482427925319607,0.014261186447492604
12.4,0.9382355952236575,0.6482095488686919,0.01422190109211409
12.450000000000001,0.9382655857872549,0.6481768392004492,0.014182610926148994
12.5,0.9382961584107729,0.6481446747825234,0.01414331821832106
12.55,0.9383273036148692,0.6481130666978177,0.014104025296576657
12.600000000000001,0.9383590117367481,0.6480820258534257,0.01406473454717501
12.65,0.9383912729331217,0.6480515629772668,0.014025448413739847
12.700000000000001,0.9384240771832183,0.6480216886147822,0.013986169396272782
12.75,0.9384574142918375,0.6479924131256899,0.013946900050128892
12.8,0.9384912738924519,0.6479637466808025,0.013907642984954801
12.850000000000001,0.9385256454503518,0.6479356992589057,0.0138684008635898
12.9,0.938560518265835,0.647908280643699,0.013829176400930438
12.950000000000001,0.9385958814774396,0.6478815004207993,0.013789972362759122
13,0.9386317240652176,0.6478553679748081,0.013750791564537327
13.05,0.9386680348540511,0.6478298924864427,0.013711636870163883
13.100000000000001,0.9387048025170079,0.6478050829297307,0.013672511190699147
13.15,0.9387420155787359,0.6477809480692716,0.01363341748305558
13.200000000000001,0.9387796624188975,0.647757496457561,0.01359435874865545
13.25,0.9388177312756402,0.6477347364323836,0.013555338032056479
13.3,0.938856210249104,0.6477126761142703,0.013516358419546078
13.350000000000001,0.938895087304965,0.6476913234040232,0.013477423037705044
13.4,0.9389343502780135,0.6476706859803075,0.013438535051941512
13.450000000000001,0.9389739868757666,0.6476507712973107,0.013399697664996017
13.5,0.9390139846821135,0.6476315865824703,0.01336091411541858
13.55,0.9390543311609926,0.6476131388342693,0.01332218767601871
13.600000000000001,0.9390950136601007,0.6475954348201007,0.01328352165228924
13.65,0.9391360194146331,0.6475784810742009,0.01324491938080503
13.700000000000001,0.9391773355510519,0.6475622838956524,0.013206384227597498
13.75,0.9392189490908839,0.6475468493464565,0.013167919586505983
13.8,0.9392608469545471,0.6475321832496752,0.013129528877507034
13.850000000000001,0.9393030159652033,0.6475182911876443,0.013091215545022633
13.9,0.9393454428526363,0.6475051785002558,0.013052983056208538
13.950000000000001,0.9393881142571574,0.6474928502833126,0.01301483489922375
14,0.939431016733534,0.6474813113869525,0.012976774581482341
14.05,0.9394741367549415,0.6474705664141449,0.012938805627888697
14.100000000000001,0.9395174607169393,0.6474606197192582,0.01290093157905748
14.15,0.9395609749414677,0.6474514754066985,0.012863155989519351
14.200000000000001,0.9396046656808664,0.6474431373296213,0.012825482425913772
14.25,0.9396485191219123,0.6474356090887146,0.012787914465170079
14.3,0.9396925213898785,0.6474288940310531,0.01275045569267802
14.350000000000001,0.9397366585526101,0.6474229952490275,0.012713109700449062
14.4,0.9397809166246184,0.6474179155793437,0.01267588008526973
14.450000000000001,0.9398252815711915,0.6474136576020959,0.012638770446848156
14.5,0.9398697393125218,0.6474102236399125,0.01260178438595527
14.55,0.9399142757278476,0.6474076157571742,0.012564925502561757
14.600000000000001,0.9399588766596094,0.6474058357593064,0.012528197393972222
