time,e,omega,d
0,0.942,0.6482848842903546,0.02633076200788132
0.05,0.9420219082402788,0.6483521827983887,0.026245071706312146
0.1,0.9420427028606052,0.6484203086646682,0.026160035371827015
0.15000000000000002,0.9420623690091445,0.6484892230125047,0.02607565290742109
0.2,0.9420808942195816,0.6485588913860683,0.025991924037023818
0.25,0.9420982625032795,0.6486292673425388,0.025908848171725726
0.30000000000000004,0.9421144616454374,0.6487003120303281,0.02582642451669308
0.35000000000000003,0.9421294794884193,0.6487719845101216,0.025744652045519827
0.4,0.9421433045788082,0.6488442433891954,0.025663529502285773
0.45,0.9421559261711738,0.6489170468398545,0.025583055404892717
0.5,0.9421673342378297,0.6489903526253975,0.025503228047159727
0.55,0.9421775194771453,0.6490641181240611,0.025424045501346044
0.6000000000000001,0.9421864733215475,0.6491383003534321,0.02534550562086065
0.65,0.9421941879451192,0.6492128559951468,0.02526760604316898
0.7000000000000001,0.942200656270788,0.6492877414198696,0.025190344192888882
0.75,0.9422058719770957,0.6493629127125358,0.02511371728506802
0.8,0.9422098295045425,0.6494383256978488,0.025037722328634632
0.8500000000000001,0.9422125240614944,0.6495139359660168,0.02496235613001338
0.9,0.9422139516296505,0.6495896988987175,0.024887615296897734
0.9500000000000001,0.942214108969058,0.6496655696952782,0.024813496242170142
1,0.9422129936226709,0.649741503399056,0.02473999518796116
1.05,0.9422106039204434,0.649817454924007,0.024667108169838393
1.1,0.9422069389829519,0.64989337908143,0.024594831041116122
1.1500000000000001,0.9422019987245381,0.6499692306068694,0.02452315947727631
1.2000000000000002,0.9421957838559678,0.6500449641871666,0.02445208898049157
1.25,0.9421882958865976,0.650120534487642,0.024381614884240625
1.3,0.9421795371260455,0.6501958961793959,0.024311732358006814
1.35,0.942169510685359,0.6502710039667126,0.024242436412050018
1.4000000000000001,0.9421582204776745,0.6503458126145529,0.024173721902242564
1.4500000000000002,0.942145671218364,0.6504202769761221,0.024105583534959535
1.5,0.9421318684246648,0.6504943520204949,0.02403801587201402
1.55,0.9421168184147869,0.650567992860285,0.02397101333562794
1.6,0.9421005283064949,0.6506411547793445,0.0239045702134291
1.6500000000000001,0.9420830060151598,0.6507137932604748,0.023838680663465235
1.7000000000000002,0.9420642602512793,0.6507858640131363,0.023773338719226066
1.75,0.9420443005174622,0.6508573230011396,0.023708538294664308
1.8,0.9420231371048745,0.6509281264703035,0.023644273189206998
1.85,0.9420007810891463,0.6509982309760634,0.023580537092748554
1.9000000000000001,0.941977244325737,0.6510675934110135,0.02351732359061716
1.9500000000000002,0.941952539444758,0.6511361710323685,0.023454626168506455
2,0.9419266798452516,0.6512039214893266,0.023392438217364617
2.0500000000000003,0.9418996796889266,0.6512708028503178,0.023330753038233273
2.1,0.9418715538933503,0.6513367736301233,0.023269563847028947
2.15,0.9418423181245975,0.6514017928168458,0.023208863779260017
2.2,0.9418119887893576,0.6514658198987169,0.023148645894672557
2.25,0.9417805830265008,0.6515288148907231,0.023088903181818707
2.3000000000000003,0.9417481186981072,0.6515907383610359,0.02302962856254156
2.35,0.941714614379959,0.6516515514572245,0.022970814896371015
2.4000000000000004,0.9416800893515002,0.6517112159322395,0.022912454984825303
2.45,0.9416445635852665,0.6517696941701462,0.022854541575613306
2.5,0.9416080577357909,0.6518269492115917,0.02279706736673332
2.5500000000000003,0.9415705931279867,0.6518829447789893,0.0227400250104641
2.6,0.9415321917450161,0.6519376453014004,0.022683407117244658
2.6500000000000004,0.941492876215647,0.651991015939098,0.02262720625943951
2.7,0.9414526698011063,0.6520430226077941,0.02257141497498674
2.75,0.9414115963814349,0.6520936320025115,0.022516025770926377
2.8000000000000003,0.9413696804040403,0.652142811570129,0.022461031128420576
2.85,0.9413269469910689,0.6521905296938226,0.022406423500455942
2.9000000000000004,0.941283421787703,0.6522367555411537,0.022352195321609227
2.95,0.9412391309989823,0.6522814591500692,0.02229833900835013
3,0.9411941013774477,0.6523246114565613,0.022244846961868264
3.0500000000000003,0.9411483602025867,0.6523661843107913,0.022191711571034303
3.1,0.9411019352638983,0.6524061504978913,0.02213892521506766
3.1500000000000004,0.9410548548435557,0.6524444837583508,0.022086480266078255
3.2,0.941007147698659,0.6524811588078852,0.022034369091486324
3.25,0.940958843043081,0.652516151356762,0.021982584056323962
3.3000000000000003,0.9409099705289204,0.6525494381285751,0.021931117525420492
3.35,0.9408605602275757,0.6525809968784425,0.02187996186547452
3.4000000000000004,0.9408106426104514,0.6526108064106134,0.021829109447015962
3.45,0.9407602485293113,0.6526388465954656,0.02177855264626179
3.5,0.9407094091962914,0.6526650983858726,0.02172828384686935
3.5500000000000003,0.9406581561635899,0.6526895438329269,0.021678295441591777
3.6,0.9406065213028437,0.6527121661009966,0.021628579833840183
3.6500000000000004,0.9405545367842133,0.6527329494821025,0.021579129439157598
3.7,0.9405022350551868,0.6527518794095949,0.021529936686610154
3.75,0.9404496488191209,0.6527689424711147,0.021480994020101028
3.8000000000000003,0.9403968110135358,0.6527841264208213,0.021432293899613104
3.85,0.9403437547881811,0.6527974201908715,0.021383828802386543
3.9000000000000004,0.9402905134828874,0.6528088139021325,0.021335591224037644
3.95,0.940237120605225,0.6528182988741146,0.021287573679625544
4,0.9401836098079843,0.6528258676341067,0.021239768704673662
4.05,0.9401300148664986,0.6528315139255018,0.021192168856152722
4.1000000000000005,0.9400763696558253,0.6528352327152968,0.021144766713432517
4.15,0.9400227081278066,0.6528370202007542,0.02109755487920961
4.2,0.9399690642880272,0.6528368738152128,0.021050525980418233
4.25,0.9399154721726883,0.6528347922330338,0.0210036726691318
4.3,0.9398619658254177,0.6528307753736726,0.020956987623462396
4.3500000000000005,0.9398085792740363,0.6528248244048651,0.02091046354846567
4.4,0.9397553465072975,0.6528169417449179,0.020864093177058517
4.45,0.9397023014516243,0.6528071310640938,0.020817869270956944
4.5,0.9396494779478589,0.6527953972850856,0.02077178462164137
4.55,0.9395969097280484,0.6527817465825684,0.020725832051356613
4.6000000000000005,0.939544630392285,0.6527661863818269,0.02068000441415362
4.65,0.9394926733856199,0.6527487253564517,0.020634294596979855
4.7,0.9394410719750734,0.6527293734250983,0.020588695520825182
4.75,0.9393898592267582,0.6527081417473097,0.020543200141929754
4.800000000000001,0.9393390679831379,0.6526850427183969,0.020497801453060318
4.8500000000000005,0.9392887308404386,0.6526600899633787,0.020452492484860987
4.9,0.9392388801262359,0.6526332983299792,0.020407266307284372
4.95,0.939189547877232,0.6526046838806875,0.020362116031108594
5,0.9391407658172478,0.6525742638838784,0.020317034809545397
5.050000000000001,0.9390925653354447,0.6525420568040003,0.02027201583994431
5.1000000000000005,0.9390449774647962,0.6525080822908359,0.020227052365597336
5.15,0.9389980328608281,0.6524723611678389,0.020182137677648378
5.2,0.9389517617806452,0.6524349154195581,0.020137265117111152
5.25,0.9389061940622616,0.6523957681781537,0.02009242807699895
5.300000000000001,0.938861359091257,0.6523549437399118,0.02004762000618438
5.3500000000000005,0.938817285812252,0.6523124674719637,0.02000283440789224
5.4,0.9387740026911272,0.65226836584348,0.01995806484436427
5.45,0.9387315376896055,0.6522226664243508,0.01991330494023032
5.5,0.9386899182850557,0.652175397785404,0.019868548380400388
5.550000000000001,0.9386491713481282,0.6521265896948765,0.01982378892583148
5.6000000000000005,0.9386093232365735,0.6520762728590367,0.019779020402722575
5.65,0.93857039973708,0.6520244789933153,0.019734236710511832
5.7,0.9385324260442189,0.6519712408078929,0.01968943182557856
5.75,0.9384954267470609,0.6519165919787046,0.019644599804178653
5.800000000000001,0.9384594258129579,0.651860567124833,0.019599734785881517
5.8500000000000005,0.9384244465717468,0.6518032017852402,0.019554830997136452
5.9,0.9383905117004473,0.6517445323948158,0.0195098827549512
5.95,0.9383576432084647,0.651684596259754,0.01946488447067914
6,0.9383258624233078,0.6516234315322845,0.019419830653911535
6.050000000000001,0.938295189976827,0.6515610771847852,0.019374715916470414
6.1000000000000005,0.9382656457919866,0.6514975729832975,0.019329534976497087
6.15,0.9382372490701743,0.6514329594604739,0.01928428266263083
6.2,0.9382100182790597,0.6513672778879828,0.019238953918271864
6.25,0.9381839711413713,0.6513005702493224,0.019193543805781612
6.300000000000001,0.9381591246227959,0.6512328792086205,0.019148047511297873
6.3500000000000005,0.9381354949223787,0.6511642480835529,0.01910246034889309
6.4,0.9381130974627621,0.651094720816232,0.01905677776505595
6.45,0.9380919468804751,0.6510243419423977,0.01901099534341429
6.5,0.9380720570172786,0.6509531565613264,0.018965108809324113
6.550000000000001,0.938053440912013,0.6508812103052372,0.018919114034517473
6.6000000000000005,0.9380361107930199,0.6508085493083479,0.018873007041776288
6.65,0.938020078071145,0.6507352201756372,0.018826784009619332
6.7,0.9380053533333279,0.6506612699513465,0.01878044127699237
6.75,0.9379919463367752,0.6505867460872446,0.01873397534795162
6.800000000000001,0.9379798660037196,0.6505116964106897,0.018687382896330453
6.8500000000000005,0.9379691204167634,0.6504361690925107,0.018640660770378993
6.9,0.9379597168148032,0.6503602126147409,0.018593805997366118
6.95,0.9379516615895374,0.650283875738228,0.018546815788133258
7,0.9379449602825499,0.65020720747015,0.01849968754158918
7.050000000000001,0.9379396175829715,0.6501302570314632,0.01845241884913502
7.1000000000000005,0.9379356373257105,0.6500530738243088,0.018405007499008467
7.15,0.9379330224902531,0.649975707399405,0.01835745148053638
7.2,0.9379317752000269,0.6498982074234504,0.018309748988284625
7.25,0.9379318967223221,0.6498206236465622,0.018261898426094495
7.300000000000001,0.937933387468768,0.6497430058697771,0.018213898410994574
7.3500000000000005,0.9379362469963549,0.6496654039126369,0.01816574777697735
7.4,0.9379404740089999,0.6495878675808828,0.018117445578629977
7.45,0.9379460663596467,0.6495104466342833,0.018068991094608477
7.5,0.9379530210528944,0.6494331907546158,0.018020383830945088
7.550000000000001,0.937961334248148,0.6493561495138256,0.017971623524178543
7.6000000000000005,0.937971001263283,0.6492793723423842,0.017922710144297346
7.65,0.9379820165788179,0.6492029084978653,0.017873643897486226
7.7,0.937994373842583,0.6491268070337615,0.017824425228666407
7.75,0.9380080658748831,0.6490511167685586,0.01777505482382049
7.800000000000001,0.9380230846741401,0.6489758862550897,0.017725533612093124
7.8500000000000005,0.9380394214230119,0.6489011637501831,0.017675862767658937
7.9,0.9380570664949751,0.6488269971846256,0.01762604371134968
7.95,0.938076009461365,0.6487534341334554,0.017576078112032757
8,0.9380962390988643,0.6486805217866034,0.017525967887733848
8.05,0.9381177433974283,0.6486083069198955,0.017475715206496767
8.1,0.9381405095686423,0.648536835866434,0.017425322486974044
8.15,0.9381645240544976,0.6484661544883715,0.01737479239874223
8.200000000000001,0.9381897725365792,0.6483963081490902,0.017324127862336502
8.25,0.9382162399456561,0.6483273416858009,0.017273332048999484
8.3,0.9382439104716626,0.6482592993825745,0.017222408380139755
8.35,0.9382727675740641,0.648192224943818,0.017171360526496208
8.4,0.938302793992596,0.6481261614682057,0.017120192407004617
8.450000000000001,0.9383339717583671,0.6480611514230771,0.017068908187363667
8.5,0.9383662822053185,0.6479972366193137,0.01701751227829802
8.55,0.9383997059820272,0.6479344581867008,0.016966009333516652
8.6,0.9384342230638477,0.6478728565497874,0.01691440424736523
8.65,0.9384698127653798,0.6478124714042516,0.016862702152171907
8.700000000000001,0.9385064537532553,0.6477533416937793,0.016810908415286385
8.75,0.9385441240592324,0.6476955055874662,0.016759028635812873
8.8,0.9385828010935927,0.6476390004577478,0.016707068641037884
8.85,0.9386224616588269,0.6475838628588682,0.016655034482554672
8.9,0.9386630819636044,0.64753012850589,0.016602932432086406
8.950000000000001,0.9387046376370157,0.6474778322542563,0.016550768977011028
9,0.9387471037430802,0.6474270080799067,0.01649855081559112
9.05,0.938790454795511,0.6473776890599562,0.016446284851912702
9.1,0.938834664772727,0.6473299073539388,0.016393978190537565
9.15,0.9388797071331049,0.6472836941856244,0.01634163813087411
9.200000000000001,0.9389255548304634,0.6472390798254107,0.016289272161272395
9.25,0.9389721803297705,0.6471960935732957,0.016236887952849458
9.3,0.9390195556230669,0.6471547637424347,0.016184493353051648
9.35,0.9390676522455962,0.6471151176432856,0.0161320963789611
9.4,0.9391164412921362,0.6470771815683447,0.01607970521035409
9.450000000000001,0.9391658934335221,0.6470409807774795,0.016027328182519396
9.5,0.9392159789333545,0.6470065394838566,0.01597497377884529
9.55,0.9392666676648853,0.6469738808404724,0.015922650623184348
9.600000000000001,0.9393179291280735,0.646943026927286,0.015870367472005483
9.65,0.9393697324668042,0.6469139987389578,0.015818133206343288
9.700000000000001,0.9394220464862632,0.646886816173196,0.01576595682355488
9.75,0.939474839670461,0.6468614980197125,0.01571384742889524
9.8,0.939528080199898,0.6468380619497912,0.015661814226921804
9.850000000000001,0.9395817359693659,0.6468165245064693,0.015609866512740152
9.9,0.9396357746058763,0.6467969010953328,0.015558013663102199
9.950000000000001,0.9396901634867114,0.6467792059759297,0.015506265127369205
10,0.9397448697575905,0.6467634522538002,0.015454630418351864
10.05,0.9397998603509431,0.6467496518731247,0.015403119103040049
10.100000000000001,0.9398551020042855,0.6467378156099938,0.015351740793235123
10.15,0.9399105612786917,0.6467279530662966,0.015300505136097766
10.200000000000001,0.9399662045773545,0.6467200726642328,0.01524942180462463
10.25,0.9400219981642272,0.6467141816414455,0.015198500488067162
10.3,0.9400779081827428,0.6467102860467772,0.015147750882306129
10.350000000000001,0.9401339006746025,0.6467083907366495,0.015097182680195439
10.4,0.9401899415986266,0.6467084993720668,0.015046805561889025
10.450000000000001,0.940245996849663,0.6467106144162429,0.014996629185164525
10.5,0.9403020322775462,0.6467147371328529,0.014946663175757558
10.55,0.9403580137060988,0.646720867584909,0.014896917117720418
10.600000000000001,0.9404139069521725,0.6467290046342604,0.014847400543818957
10.65,0.9404696778447177,0.6467391459417182,0.014798122925981436
10.700000000000001,0.9405252922438792,0.6467512879678029,0.014749093665812951
10.75,0.9405807160601077,0.6467654259741172,0.01470032208518907
10.8,0.9406359152732849,0.6467815540253407,0.014651817416942093
10.850000000000001,0.9406908559518495,0.6467996649918475,0.014603588795653289
10.9,0.9407455042719228,0.6468197505529469,0.014555645248564156
10.950000000000001,0.9407998265364245,0.646841801200744,0.014507995686619745
11,0.9408537891941702,0.6468658062446205,0.01446064889565666
11.05,0.9409073588589475,0.6468917538163362,0.014413613527748295
11.100000000000001,0.9409605023285595,0.6469196308757468,0.014366898092719424
11.15,0.9410131866038303,0.6469494232171397,0.014320510949842113
11.200000000000001,0.9410653789075643,0.646981115476184,0.014274460299724468
11.25,0.9411170467034542,0.6470146911374952,0.014228754176403617
11.3,0.9411681577149248,0.6470501325428103,0.014183400439653614
11.350000000000001,0.9412186799439104,0.6470874208997733,0.014138406767518959
11.4,0.9412685816895545,0.6471265362913282,0.014093780649083771
11.450000000000001,0.9413178315668242,0.6471674576857169,0.014049529377486289
11.5,0.9413663985250322,0.6472101629470801,0.014005660043188036
11.55,0.9414142518662563,0.6472546288466579,0.013962179527506353
11.600000000000001,0.9414613612636498,0.6473008310745859,0.013919094496418748
11.65,0.941507696779632,0.6473487442522876,0.013876411394646767
11.700000000000001,0.9415532288839525,0.6473983419454539,0.01383413644002685
11.75,0.9415979284716179,0.6474495966776109,0.01379227561817492
11.8,0.9416417668806725,0.6475024799442698,0.013750834677451002
11.850000000000001,0.9416847159098249,0.6475569622276546,0.013709819124229666
11.9,0.9417267478359105,0.6476130130120039,0.013669234218481431
11.950000000000001,0.9417678354311789,0.6476706007994423,0.01362908496966977
12,0.9418079519803986,0.6477296931264144,0.013589376132967809
12.05,0.9418470712977679,0.6477902565806791,0.013550112205798147
12.100000000000001,0.9418851677436227,0.6478522568188567,0.013511297424698731
12.15,0.9419222162409306,0.6479156585845219,0.013472935762517017
12.200000000000001,0.9419581922915619,0.6479804257268402,0.013435030925934191
12.25,0.9419930719923248,0.648046521219737,0.01339758635332051
12.3,0.9420268320507599,0.648113907181595,0.013360605212922228
12.350000000000001,0.942059449800675,0.6481825448954729,0.013324090401380108
12.4,0.9420909032174184,0.6482523948298362,0.01328804454257867
12.450000000000001,0.9421211709328737,0.6483234166597941,0.013252469986825005
12.5,0.942150232250168,0.648395569288834,0.01321736881035517
12.55,0.9421780671580825,0.6484688108710434,0.01318274281516574
12.600000000000001,0.9422046563451544,0.648543098833814,0.013148593529167356
12.65,0.9422299812134577,0.6486183899010155,0.013114922206656747
12.700000000000001,0.9422540238920556,0.6486946401166308,0.013081729829102879
12.75,0.9422767672501083,0.6487718048688446,0.013049017106242511
12.8,0.9422981949096301,0.6488498389145717,0.013016784477479885
12.850000000000001,0.9423182912578816,0.648928696404419,0.012985032113584588
12.9,0.942337041459387,0.6490083309080665,0.012953759918681283
12.950000000000001,0.9423544314675663,0.649088695440059,0.012922967532524384
13,0.9423704480359693,0.649169742485996,0.012892654333050329
13.05,0.9423850787291029,0.6492514240291075,0.012862819439199535
13.100000000000001,0.9423983119328395,0.6493336915772068,0.012833461713999841
13.15,0.9424101368643958,0.6494164961900027,0.01280457976790255
13.200000000000001,0.942420543581872,0.6494997885067657,0.01277617196236205
13.25,0.9424295229933398,0.6495835187743274,0.012748236413649361
13.3,0.9424370668654705,0.6496676368754075,0.012720770996889704
13.350000000000001,0.9424431678316906,0.6497520923572501,0.012693773350313891
13.4,0.9424478193998564,0.6498368344605573,0.012667240879712782
13.450000000000001,0.9424510159594387,0.6499218121487068,0.012641170763084093
13.5,0.9424527527882037,0.6500069741372391,0.012615559955460189
13.55,0.9424530260583861,0.6500922689235993,0.0125904051939056
13.600000000000001,0.9424518328423405,0.6501776448171198,0.012565703002672506
13.65,0.9424491711176645,0.6502630499692293,0.012541449698502388
13.700000000000001,0.9424450397717837,0.6503484324038724,0.012517641396061853
13.75,0.9424394386059906,0.6504337400481254,0.01249427401350045
13.8,0.9424323683389287,0.6505189207629923,0.012471343278118227
13.850000000000001,0.9424238306095141,0.650603922374367,0.012448844732130732
13.9,0.9424138279792859,0.6506886927041442,0.012426773738519015
13.950000000000001,0.9424023639341808,0.6507731796014639,0.012405125486952263
14,0.9423894428857212,0.6508573309740744,0.012383894999770663
14.05,0.9423750701716133,0.65094109481979745,0.012363077138016085
14.100000000000001,0.9423592520557468,0.6510244192580776,0.012342666607498366
14.15,0.9423419957275923,0.651107252561602,0.012322657964884924
14.200000000000001,0.9423233093009887,0.6511895431879718,0.012303045623801651
14.25,0.9423032018123179,0.6512712398114111,0.012283823860933204
14.3,0.9422816832180599,0.6513522913544937,0.012264986822110873
14.350000000000001,0.9422587643917266,0.6514326470198732,0.012246528528376602
14.4,0.9422344571201674,0.651512256321999,0.012228442882011784
14.450000000000001,0.942208774099247,0.6515910691187989,0.012210723672519866
14.5,0.9421817289288901,0.6516690356433154,0.012193364582552024
14.55,0.9421533361074911,0.6517461065352729,0.012176359193765503
14.600000000000001,0.9421236110256873,0.6518222328725637,0.012159700992604506
