time,e,omega,d,p,xi,gY,pi,i_rate,lambda_t,r0_t,debt_stress
0,0.82,0.8,1,1,2,0.02,0.2,0,58.8,0.04,0
0.05,0.819992736910168,0.800880469514356,0.996760740584569,0.999986875159902,1.99500560562042,0.00964567851117037,0.199119530485644,-0.000176093902871252,58.8,0.04,0
0.1,0.819628169338328,0.801761215568994,0.99396009953533,0.999947634601929,1.99002252186055,0.005,0.198238784431006,-0.000352243113798736,58.8,0.04,0
0.15,0.81921845769004,0.802641323713361,0.991217455714759,0.99988263470846,1.98505101485883,0.005,0.197358676286639,-0.000528264742672292,58.8,0.04,0
0.2,0.818808950845006,0.8035207522724,0.988477696583546,0.999792227083837,1.98009134335806,0.005,0.1964792477276,-0.000704150454480051,58.8,0.04,0
0.25,0.818399648704527,0.80439949784769,0.985740819804799,0.999676742247732,1.97514374474613,0.005,0.19560050215231,-0.000879899569537927,58.8,0.04,0
0.3,0.817990551163085,0.805277556806621,0.983006822870824,0.999536531242176,1.97020846506244,0.005,0.194722443193379,-0.00105551136132416,58.8,0.04,0
0.35,0.817581658119286,0.806154925659527,0.980275703361831,0.999371928942131,1.96528573244608,0.005,0.193845074340473,-0.00123098513190537,58.8,0.04,0
0.4,0.817172969470903,0.807031600889053,0.977547458829405,0.999183270783332,1.96037576984314,0.005,0.192968399110947,-0.00140632017781063,58.8,0.04,0
0.45,0.816764485115766,0.807907578980668,0.974822086816579,0.998970889525745,1.95547879233035,0.005,0.192092421019332,-0.00158151579613368,58.8,0.04,0
0.5,0.816356204951754,0.808782856422644,0.972099584858004,0.998735115263933,1.95059500742294,0.005,0.191217143577356,-0.0017565712845287,58.8,0.04,0
0.55,0.815948128876799,0.809657429705889,0.969379950480528,0.998476275563556,1.94572461575022,0.005,0.190342570294111,-0.0019314859411779,58.8,0.04,0
0.6,0.81554025678888,0.810531295324111,0.966663181202815,0.998194695303765,1.94086781083011,0.005,0.189468704675889,-0.00210625906482223,58.8,0.04,0
0.65,0.815132588586029,0.811404449773831,0.963949274535357,0.997890696646408,1.9360247792174,0.005,0.188595550226169,-0.0022808899547662,58.8,0.04,0
0.7,0.81472512416633,0.812276889554406,0.961238227980516,0.997564599012848,1.93119570067452,0.005,0.187723110445594,-0.00245537791088116,58.8,0.04,0
0.75,0.814317863427916,0.813148611168052,0.958530039032532,0.997216719054412,1.92638074831394,0.005,0.186851388831948,-0.00262972223361042,58.8,0.04,0
0.8,0.813910806268972,0.814019611119872,0.95582470517753,0.996847370627664,1.92158008872873,0.005,0.185980388880128,-0.00280392222397441,58.8,0.04,0
0.85,0.813503952587734,0.814889885917878,0.953122223893533,0.996456864770008,1.91679388212988,0.005,0.185110114082122,-0.00297797718357565,58.8,0.04,0
0.9,0.813097302282488,0.81575943207302,0.950422592650467,0.996045509677412,1.91202228248262,0.005,0.18424056792698,-0.00315188641460391,58.8,0.04,0
0.95,0.812690855251572,0.816628246099207,0.947725808910173,0.995613610684957,1.90726543763824,0.005,0.183371753900793,-0.00332564921984149,58.8,0.04,0
1,0.812284611393374,0.817496324513341,0.945031870126418,0.995161470249361,1.90252348946479,0.005,0.182503675486659,-0.00349926490266815,58.8,0.04,0
1.05,0.811878570606334,0.818363663835331,0.9423407737449,0.994689387933532,1.897796573976,0.005,0.181636336164669,-0.00367273276706621,58.8,0.04,0
1.1,0.81147273278894,0.819230260588129,0.939652517203261,0.994197660393083,1.89308482145857,0.005,0.180769739411871,-0.00384605211762581,58.8,0.04,0
1.15,0.811067097839734,0.820096111297749,0.936967097931097,0.99368658136476,1.88838835659758,0.005,0.179903888702251,-0.00401922225954975,58.8,0.04,0
1.2,0.810661665657306,0.820961212493294,0.934284513349965,0.993156441656697,1.88370729860018,0.005,0.179038787506706,-0.00419224249865874,58.8,0.04,0
1.25,0.810256436140299,0.821825560706982,0.931604760873395,0.992607529140451,1.87904176131742,0.005,0.178174439293018,-0.00436511214139637,58.8,0.04,0
1.3,0.809851409187405,0.822689152474171,0.928927837906898,0.992040128744732,1.8743918533644,0.005,0.177310847525829,-0.00453783049483428,58.8,0.04,0
1.35,0.809446584697368,0.823551984333385,0.92625374184798,0.991454522450786,1.86975767823848,0.005,0.176448015666615,-0.00471039686667707,58.8,0.04,0
1.4,0.809041962568981,0.824414052826337,0.923582470086144,0.990850989289348,1.86513933443583,0.005,0.175585947173663,-0.00488281056526746,58.8,0.04,0
1.45,0.808637542701088,0.825275354497956,0.92091402000291,0.990229805339128,1.8605369155661,0.005,0.174724645502044,-0.00505507089959126,58.8,0.04,0
1.5,0.808233324992586,0.826135885896412,0.918248388971817,0.989591243726748,1.85595051046531,0.005,0.173864114103588,-0.00522717717928244,58.8,0.04,0
1.55,0.807829309342419,0.826995643573141,0.915585574358437,0.988935574628085,1.85138020330698,0.005,0.173004356426859,-0.00539912871462814,58.8,0.04,0
1.6,0.807425495649584,0.827854624082869,0.912925573520383,0.988263065270963,1.84682607371143,0.005,0.172145375917131,-0.00557092481657374,58.8,0.04,0
1.65,0.807021883813127,0.828712823983639,0.910268383807323,0.987573979939139,1.84228819685334,0.005,0.171287176016361,-0.00574256479672774,58.8,0.04,0
1.7,0.806618473732145,0.829570239836835,0.907614002560986,0.98686857997752,1.8377666435675,0.005,0.170429760163165,-0.0059140479673669,58.8,0.04,0
1.75,0.806215265305786,0.830426868207206,0.904962427115174,0.986147123798573,1.83326148045282,0.005,0.169573131792794,-0.00608537364144116,58.8,0.04,0
1.8,0.805812258433247,0.831282705662893,0.902313654795775,0.985409866889863,1.82877276997457,0.005,0.168717294337107,-0.00625654113257862,58.8,0.04,0
1.85,0.805409453013777,0.832137748775453,0.899667682920768,0.984657061822686,1.82430057056489,0.005,0.167862251224547,-0.00642754975509058,58.8,0.04,0
1.9,0.805006848946675,0.832991994119882,0.897024508800238,0.983888958261725,1.81984493672152,0.005,0.167008005880118,-0.00659839882397645,58.8,0.04,0
1.95,0.804604446131288,0.833845438274644,0.894384129736387,0.983105802975708,1.81540591910482,0.005,0.166154561725356,-0.00676908765492874,58.8,0.04,0
2,0.804202244467018,0.83469807782169,0.891746543023541,0.982307839848997,1.81098356463317,0.005,0.16530192217831,-0.00693961556433804,58.8,0.04,0
2.05,0.803800243853313,0.83554990934649,0.889111745948162,0.98149530989409,1.80657791657648,0.005,0.16445009065351,-0.00710998186929795,58.8,0.04,0
2.1,0.803398444189673,0.83640092943805,0.886479735788862,0.980668451264963,1.80218901464821,0.005,0.16359907056195,-0.00728018588760992,58.8,0.04,0
2.15,0.802996845375649,0.837251134688942,0.883850509816408,0.979827499271235,1.79781689509558,0.005,0.162748865311058,-0.00745022693778837,58.8,0.04,0
2.2,0.802595447310839,0.838100521695328,0.88122406529374,0.978972686393103,1.79346159078819,0.005,0.161899478304672,-0.00762010433906553,58.8,0.04,0
2.25,0.802194249894896,0.838949087056981,0.878600399475975,0.978104242297006,1.78912313130499,0.005,0.161050912943019,-0.00778981741139627,58.8,0.04,0
2.3,0.80179325302752,0.839796827377316,0.875979509610423,0.977222393851988,1.78480154301961,0.005,0.160203172622684,-0.00795936547546312,58.8,0.04,0
2.35,0.801392456608461,0.840643739263406,0.873361392936595,0.976327365146709,1.78049684918406,0.005,0.159356260736594,-0.00812874785268117,58.8,0.04,0
2.4,0.80099186053752,0.841489819326014,0.870746046686217,0.975419377507086,1.77620907001093,0.005,0.158510180673986,-0.00829796386520287,58.8,0.04,0
2.45,0.800591464714548,0.842335064179615,0.868133468083237,0.97449864951451,1.77193822275387,0.005,0.157664935820385,-0.00846701283592306,58.8,0.04,0
2.5,0.800191269039447,0.843179470442418,0.865523654343842,0.973565397024619,1.76768432178667,0.005,0.156820529557582,-0.00863589408848364,58.8,0.04,0
2.55,0.799791273412168,0.844023034736393,0.862916602676464,0.972619833186585,1.76344737868066,0.005,0.155976965263607,-0.00880460694727864,58.8,0.04,0
2.6,0.79939147773271,0.844865753687295,0.860312310281793,0.97166216846289,1.75922740228071,0.005,0.155134246312705,-0.00897315073745897,58.8,0.04,0
2.65,0.798991881901127,0.845707623924686,0.857710774352792,0.970692610649554,1.75502439877964,0.005,0.154292376075314,-0.00914152478493729,58.8,0.04,0
2.7,0.798592485817518,0.846548642081964,0.855111992074703,0.969711364896789,1.75083837179117,0.005,0.153451357918036,-0.0093097284163928,58.8,0.04,0
2.75,0.798193289382035,0.847388804796381,0.85251596062506,0.96871863373005,1.74666932242143,0.005,0.152611195203619,-0.00947776095927622,58.8,0.04,0
2.8,0.797794292494878,0.848228108709073,0.849922677173704,0.967714617071451,1.74251724933905,0.005,0.151771891290927,-0.00964562174181452,58.8,0.04,0
2.85,0.797395495056298,0.849066550465078,0.847332138882791,0.966699512261528,1.73838214884369,0.005,0.150933449534922,-0.00981331009301566,58.8,0.04,0
2.9,0.796996896966597,0.849904126713368,0.844744342906805,0.965673514081309,1.73426401493335,0.005,0.150095873286632,-0.00998082534267352,58.8,0.04,0
2.95,0.796598498126123,0.850740834106864,0.84215928639257,0.964636814774684,1.73016283937016,0.005,0.149259165893136,-0.0101481668213727,58.8,0.04,0
3,0.796200298435279,0.851576669302466,0.839576966479261,0.963589604071029,1.72607861174484,0.005,0.148423330697534,-0.0103153338604932,58.8,0.04,0
3.05,0.795802297794513,0.852411628961077,0.836997380298418,0.962532069208086,1.72201131953983,0.005,0.147588371038923,-0.0104823257922153,58.8,0.04,0
3.1,0.795404496104326,0.853245709747622,0.834420524973953,0.961464394955052,1.7179609481911,0.005,0.146754290252378,-0.0106491419495243,58.8,0.04,0
3.15,0.795006893265267,0.854078908331076,0.831846397622168,0.960386763635873,1.71392748114859,0.005,0.145921091668924,-0.0108157816662153,58.8,0.04,0
3.2,0.794609489177935,0.854911221384489,0.829274995351765,0.959299355152713,1.70991089993546,0.005,0.145088778615511,-0.0109822442768978,58.8,0.04,0
3.25,0.79421228374298,0.855742645585004,0.826706315263855,0.958202347009582,1.70591118420596,0.005,0.144257354414996,-0.0111485291170008,58.8,0.04,0
3.3,0.7938152768611,0.856573177613886,0.824140354451975,0.9570959143361,1.70192831180218,0.005,0.143426822386114,-0.0113146355227772,58.8,0.04,0
3.35,0.793418468433044,0.857402814156544,0.821577110002097,0.955980229911386,1.69796225880943,0.005,0.142597185843456,-0.0114805628313087,58.8,0.04,0
3.4,0.793021858359608,0.858231551902552,0.81901657899264,0.954855464188043,1.69401299961054,0.005,0.141768448097448,-0.0116463103805104,58.8,0.04,0
3.45,0.792625446541641,0.859059387545677,0.816458758494485,0.953721785316234,1.69008050693891,0.005,0.140940612454323,-0.0118118775091355,58.8,0.04,0
3.5,0.79222923288004,0.859886317783901,0.813903645570985,0.952579359167819,1.68616475193036,0.005,0.140113682216099,-0.0119772635567802,58.8,0.04,0
3.55,0.791833217275752,0.860712339319442,0.81135123727798,0.951428349360556,1.68226570417392,0.005,0.139287660680558,-0.0121424678638884,58.8,0.04,0
3.6,0.791437399629772,0.86153744885878,0.808801530663806,0.950268917282331,1.67838333176139,0.005,0.13846255114122,-0.0123074897717559,58.8,0.04,0
3.65,0.791041779843145,0.862361643112679,0.806254522769311,0.949101222115411,1.67451760133586,0.005,0.137638356887321,-0.0124723286225357,58.8,0.04,0
3.7,0.790646357816968,0.863184918796211,0.803710210627864,0.947925420860718,1.67066847813915,0.005,0.136815081203789,-0.0126369837592422,58.8,0.04,0
3.75,0.790251133452385,0.864007272628781,0.801168591265371,0.946741668362085,1.66683592605804,0.005,0.135992727371219,-0.0128014545257562,58.8,0.04,0
3.8,0.789856106650589,0.864828701334146,0.798629661700286,0.945550117330506,1.66301990766964,0.005,0.135171298665854,-0.0129657402668292,58.8,0.04,0
3.85,0.789461277312824,0.865649201640441,0.796093418943624,0.944350918368354,1.65922038428561,0.005,0.134350798359559,-0.0131298403280882,58.8,0.04,0
3.9,0.789066645340382,0.866468770280203,0.793559859998976,0.943144219993563,1.65543731599536,0.005,0.133531229719797,-0.0132937540560406,58.8,0.04,0
3.95,0.788672210634605,0.867287403990392,0.791028981862517,0.94193016866375,1.65167066170832,0.005,0.132712596009608,-0.0134574807980783,58.8,0.04,0
4,0.788277973096886,0.868105099512413,0.788500781523023,0.940708908800293,1.64792037919513,0.005,0.131894900487587,-0.0136210199024826,58.8,0.04,0
4.05,0.787883932628664,0.868921853592143,0.785975255961884,0.939480582812317,1.64418642512799,0.005,0.131078146407857,-0.0137843707184287,58.8,0.04,0
4.1,0.787490089131429,0.869737662979952,0.783452402153114,0.93824533112062,1.64046875511993,0.005,0.130262337020048,-0.0139475325959905,58.8,0.04,0
4.15,0.78709644250672,0.870552524430724,0.780932217063366,0.937003292181496,1.63676732376326,0.005,0.129447475569276,-0.0141105048861448,58.8,0.04,0
4.2,0.786702992656126,0.871366434703881,0.778414697651948,0.935754602510462,1.63308208466709,0.005,0.128633565296119,-0.0142732869407762,58.8,0.04,0
4.25,0.786309739481285,0.872179390563408,0.775899840870829,0.934499396705886,1.62941299049389,0.005,0.127820609436592,-0.0144358781126815,58.8,0.04,0
4.3,0.785916682883882,0.872991388777871,0.77338764366466,0.933237807472496,1.62575999299527,0.005,0.127008611222129,-0.0145982777555743,58.8,0.04,0
4.35,0.785523822765654,0.873802426120447,0.770878102970783,0.931969965644763,1.62212304304683,0.005,0.126197573879553,-0.0147604852240894,58.8,0.04,0
4.4,0.785131159028386,0.874612499368937,0.768371215719245,0.930696000210171,1.61850209068221,0.005,0.125387500631063,-0.0149224998737875,58.8,0.04,0
4.45,0.784738691573912,0.875421605305798,0.765866978832812,0.929416038332334,1.61489708512628,0.005,0.124578394694202,-0.0150843210611596,58.8,0.04,0
4.5,0.784346420304115,0.876229740718159,0.76336538922698,0.928130205373987,1.61130797482757,0.005,0.123770259281841,-0.0152459481436318,58.8,0.04,0
4.55,0.783954345120927,0.877036902397846,0.760866443809996,0.926838624919825,1.60773470748984,0.005,0.122963097602154,-0.0154073804795692,58.8,0.04,0
4.6,0.783562465926329,0.877843087141405,0.75837013948286,0.92554141879919,1.60417723010295,0.005,0.122156912858595,-0.0155686174282809,58.8,0.04,0
4.65,0.783170782622352,0.878648291750121,0.75587647313935,0.924238707108602,1.60063548897289,0.005,0.121351708249879,-0.0157296583500243,58.8,0.04,0
4.7,0.782779295111074,0.879452513030048,0.753385441666028,0.922930608234128,1.59710942975112,0.005,0.120547486969952,-0.0158905026060095,58.8,0.04,0
4.75,0.782388003294625,0.88025574779202,0.750897041942256,0.921617238873583,1.59359899746315,0.005,0.11974425220798,-0.016051149558404,58.8,0.04,0
4.8,0.78199690707518,0.881057992851684,0.748411270840213,0.920298714058569,1.59010413653644,0.005,0.118942007148316,-0.0162115985703368,58.8,0.04,0
4.85,0.781606006354967,0.881859245029515,0.745928125224902,0.918975147176328,1.58662479082752,0.005,0.118140754970485,-0.0163718490059029,58.8,0.04,0
4.9,0.781215301036258,0.882659501150841,0.743447601954172,0.917646649991424,1.58316090364852,0.005,0.117340498849159,-0.0165319002301682,58.8,0.04,0
4.95,0.78082479102138,0.883458758045866,0.740969697878724,0.916313332667243,1.57971241779294,0.005,0.116541241954134,-0.0166917516091732,58.8,0.04,0
5,0.780434476212703,0.884257012549689,0.738494409842132,0.914975303787311,1.57627927556085,0.005,0.115742987450311,-0.0168514025099378,58.8,0.04,0
5.05,0.780044356512649,0.885054261502329,0.736021734680853,0.913632670376419,1.57286141878335,0.005,0.114945738497671,-0.0170108523004658,58.8,0.04,0
5.1,0.779654431823688,0.885850501748744,0.73355166922424,0.912285537921561,1.56945878884646,0.005,0.114149498251256,-0.0171701003497488,58.8,0.04,0
5.15,0.77926470204834,0.886645730138856,0.73108421029456,0.910934010392685,1.56607132671436,0.005,0.113354269861144,-0.0173291460277711,58.8,0.04,0
5.2,0.778875167089171,0.88743994352757,0.728619354707007,0.909578190263241,1.56269897295207,0.005,0.11256005647243,-0.0174879887055139,58.8,0.04,0
5.25,0.778485826848797,0.888233138774797,0.726157099269714,0.908218178530539,1.55934166774747,0.005,0.111766861225203,-0.0176466277549594,58.8,0.04,0
5.3,0.778096681229885,0.889025312745477,0.723697440783769,0.906854074735908,1.55599935093281,0.005,0.110974687254523,-0.0178050625490953,58.8,0.04,0
5.35,0.777707730135147,0.889816462309597,0.721240376043231,0.90548597698465,1.55267196200559,0.005,0.110183537690403,-0.0179632924619193,58.8,0.04,0
5.4,0.777318973467345,0.890606584342216,0.718785901835142,0.904113981965802,1.54935944014892,0.005,0.109393415657784,-0.0181213168684432,58.8,0.04,0
5.45,0.776930411129291,0.891395675723486,0.716334014939539,0.902738184971691,1.54606172425134,0.005,0.108604324276514,-0.0182791351446972,58.8,0.04,0
5.5,0.776542043023844,0.892183733338672,0.713884712129477,0.901358679917282,1.54277875292609,0.005,0.107816266661328,-0.0184367466677344,58.8,0.04,0
5.55,0.776153869053911,0.892970754078173,0.711437990171034,0.899975559359332,1.53951046452988,0.005,0.107029245921827,-0.0185941508156347,58.8,0.04,0
5.6,0.77576588912245,0.893756734837547,0.708993845823331,0.898588914515327,1.53625679718112,0.005,0.106243265162453,-0.0187513469675095,58.8,0.04,0
5.65,0.775378103132465,0.894541672517529,0.706552275838547,0.897198835282223,1.53301768877769,0.005,0.105458327482471,-0.0189083345035058,58.8,0.04,0
5.7,0.77499051098701,0.895325564024051,0.704113276961929,0.895805410254978,1.5297930770142,0.005,0.104674435975949,-0.0190651128048103,58.8,0.04,0
5.75,0.774603112589187,0.896108406268269,0.701676845931813,0.894408726744879,1.52658289939879,0.005,0.103891593731731,-0.0192216812536538,58.8,0.04,0
5.8,0.774215907842146,0.896890196166577,0.699242979479635,0.893008870797656,1.52338709326945,0.005,0.103109803833423,-0.0193780392333153,58.8,0.04,0
5.85,0.773828896649086,0.897670930640633,0.696811674329944,0.891605927211401,1.5202055958099,0.005,0.102329069359367,-0.0195341861281265,58.8,0.04,0
5.9,0.773442078913254,0.898450606617379,0.694382927200423,0.890199979554273,1.51703834406501,0.005,0.101549393382621,-0.0196901213234757,58.8,0.04,0
5.95,0.773055454537946,0.89922922102906,0.691956734801899,0.888791110181996,1.5138852749558,0.005,0.10077077897094,-0.019845844205812,58.8,0.04,0
6,0.772669023426505,0.900006770813249,0.689533093838358,0.88737940025516,1.51074632529402,0.005,0.0999932291867515,-0.0200013541626497,58.8,0.04,0
6.05,0.772282785482325,0.900783252912861,0.687112001006964,0.885964929756303,1.50762143179629,0.005,0.0992167470871386,-0.0201566505825723,58.8,0.04,0
6.1,0.771896740608845,0.901558664276183,0.68469345299807,0.884547777506801,1.50451053109787,0.005,0.0984413357238167,-0.0203117328552366,58.8,0.04,0
6.15,0.771510888709554,0.902333001856886,0.682277446495235,0.883128021183549,1.501413559766,0.005,0.0976669981431136,-0.0204666003713773,58.8,0.04,0
6.2,0.771125229687989,0.903106262614051,0.679863978175239,0.88170573733543,1.49833045431286,0.005,0.0968937373859486,-0.0206212525228103,58.8,0.04,0
6.25,0.770739763447736,0.903878443512188,0.677453044708097,0.8802810013996,1.49526115120822,0.005,0.096121556487812,-0.0207756887024376,58.8,0.04,0
6.3,0.770354489892427,0.904649541521256,0.675044642757078,0.87885388771755,1.49220558689158,0.005,0.0953504584787441,-0.0209299083042512,58.8,0.04,0
6.35,0.769969408925745,0.905419553616684,0.672638768978716,0.877424469550979,1.48916369778409,0.005,0.0945804463833156,-0.0210839107233369,58.8,0.04,0
6.4,0.769584520451419,0.906188476779394,0.670235420022826,0.875992819097469,1.48613542030005,0.005,0.0938115232206065,-0.0212376953558787,58.8,0.04,0
6.45,0.769199824373228,0.906956307995814,0.667834592532524,0.874559007505948,1.48312069085805,0.005,0.0930436920041857,-0.0213912615991629,58.8,0.04,0
6.5,0.768815320594996,0.907723044257909,0.665436283144235,0.873123104891969,1.48011944589185,0.005,0.0922769557420909,-0.0215446088515818,58.8,0.04,0
6.55,0.768431009020599,0.908488682563192,0.663040488487716,0.871685180352784,1.47713162186082,0.005,0.0915113174368084,-0.0216977365126383,58.8,0.04,0
6.6,0.768046889553958,0.909253219914747,0.660647205186066,0.870245301982224,1.47415715526019,0.005,0.0907467800852526,-0.0218506439829495,58.8,0.04,0
6.65,0.767662962099043,0.910016653321254,0.658256429855745,0.868803536885384,1.47119598263087,0.005,0.0899833466787461,-0.0220033306642508,58.8,0.04,0
